,Mass,Amplitude
0,0.0,0.0004084847346486347
1,1.234567901234568e-06,-0.00017850818977100172
2,4.938271604938272e-06,-0.00026231064646837035
3,1.1111111111111113e-05,0.00037437617710114223
4,1.9753086419753087e-05,-4.667686200947198e-05
5,3.08641975308642e-05,7.045980690492188e-05
6,4.444444444444445e-05,0.0004933704874409369
7,6.0493827160493825e-05,0.0003988554059743867
8,7.901234567901235e-05,-0.0001101700142101127
9,0.0001,-0.0002431627642621352
10,0.0001234567901234568,0.0001877474749675005
11,0.00014938271604938272,0.00016803713620480541
12,0.0001777777777777778,-0.0005147138970652153
13,0.00020864197530864195,2.8256978325965648e-05
14,0.0002419753086419753,3.988465430327764e-05
15,0.0002777777777777778,0.0001299911924894983
16,0.0003160493827160494,-0.00047623698306808657
17,0.00035679012345679015,-0.0003174135047747175
18,0.0004,-7.817859737582124e-05
19,0.00044567901234567904,1.0715728248555472e-05
20,0.0004938271604938272,0.00024671547157085495
21,0.0005444444444444445,7.472493534402875e-05
22,0.0005975308641975309,-2.3439858599665798e-06
23,0.0006530864197530864,0.00025522704688010685
24,0.0007111111111111113,6.499466904316064e-05
25,0.0007716049382716049,-0.00023466941224977955
26,0.0008345679012345678,0.0002776843847609025
27,0.0009,-4.260755170139145e-05
28,0.0009679012345679012,0.00021927707269258175
29,0.0010382716049382715,1.2069397379327776e-05
30,0.0011111111111111111,0.00026053866978571733
31,0.0011864197530864198,0.00018971667576813707
32,0.0012641975308641975,-2.1563084983936412e-05
33,0.0013444444444444445,0.00037184981861655155
34,0.0014271604938271606,5.210278231184709e-05
35,0.0015123456790123457,0.00013373843062368523
36,0.0016,-7.559508049053984e-05
37,0.0016901234567901235,9.060983262885224e-05
38,0.0017827160493827162,0.00020463336300600223
39,0.001877777777777778,0.00015156217443807284
40,0.0019753086419753087,-0.00012633310794306222
41,0.002075308641975309,0.00045342292130821346
42,0.002177777777777778,0.00019045442801969686
43,0.0022827160493827164,-3.749738967715081e-05
44,0.0023901234567901236,4.0694649295668704e-05
45,0.0025000000000000005,-1.0212600386278308e-05
46,0.0026123456790123458,-7.524641659308741e-05
47,0.0027271604938271608,-1.3088016534616355e-05
48,0.002844444444444445,0.00035925630448353335
49,0.0029641975308641972,-9.734724394054115e-05
50,0.0030864197530864196,4.080471242808822e-05
51,0.0032111111111111108,0.00023117159835056266
52,0.003338271604938271,0.00010118982238200101
53,0.003467901234567901,-1.02055907687273e-06
54,0.0036,0.00013686807187056883
55,0.0037345679012345677,2.277295922726595e-05
56,0.003871604938271605,0.0004634341034709156
57,0.004011111111111112,0.0002919109753103926
58,0.004153086419753086,-0.00014287121340983666
59,0.004297530864197532,0.0004959625008764897
60,0.0044444444444444444,-0.0002697888206217978
61,0.004593827160493828,-0.00017377926683379282
62,0.004745679012345679,4.636807417874299e-06
63,0.004900000000000001,-0.0001290905578150679
64,0.00505679012345679,0.0004841303336306689
65,0.0052160493827160485,2.5929900865157864e-05
66,0.005377777777777778,0.00013956751536416787
67,0.005541975308641974,0.0002959395783255002
68,0.005708641975308642,-8.200258187651464e-05
69,0.005877777777777777,-6.49358106986363e-05
70,0.006049382716049383,7.252047214872381e-05
71,0.006223456790123456,0.00039644304864862285
72,0.0064,3.942820348075806e-05
73,0.006579012345679012,0.00047724888216075427
74,0.006760493827160494,6.513689735333488e-05
75,0.006944444444444444,0.0002128839754915303
76,0.007130864197530865,0.0002453749136989802
77,0.0073197530864197525,-0.00021606164151835168
78,0.007511111111111112,-0.00045528305588167734
79,0.007704938271604938,9.676243315368938e-05
80,0.007901234567901235,4.230248358320429e-05
81,0.0081,-0.00018515594766891315
82,0.008301234567901236,6.118623647972557e-07
83,0.008504938271604938,-0.0002923036165150838
84,0.008711111111111112,-0.000437118528337141
85,0.008919753086419752,5.315006317153003e-05
86,0.009130864197530866,2.9096875128234355e-05
87,0.009344444444444443,0.0003688515892772016
88,0.009560493827160494,2.458320667179123e-05
89,0.009779012345679012,0.00017243994166170367
90,0.010000000000000002,-5.062229623241139e-05
91,0.010223456790123457,-7.13386794672493e-06
92,0.010449382716049383,0.00030312752756717244
93,0.010677777777777777,0.00021808014061848672
94,0.010908641975308643,-4.4465614644232174e-05
95,0.011141975308641975,0.0001166777562838619
96,0.01137777777777778,0.00018683513626700985
97,0.01161604938271605,-0.00027762015486578563
98,0.011856790123456789,0.0003689638509313098
99,0.0121,-0.00020529802161254067
100,0.012345679012345678,0.000548435505118403
101,0.012593827160493827,0.00026843339940802526
102,0.012844444444444443,-2.7309659495286912e-05
103,0.01309753086419753,0.00015913251896381822
104,0.013353086419753085,9.108381947717349e-05
105,0.013611111111111112,0.00035533247175134646
106,0.013871604938271604,-0.00011915033299774495
107,0.014134567901234569,-6.86680904647939e-05
108,0.0144,0.00011065764603695854
109,0.014667901234567902,-2.695095715892262e-05
110,0.01493827160493827,0.00013099616080779411
111,0.015211111111111113,0.00021764515938678408
112,0.01548641975308642,-0.00034650578353350304
113,0.015764197530864197,0.0001545040606413406
114,0.016044444444444448,-0.00014165790178998454
115,0.016327160493827157,0.0002360572769479632
116,0.016612345679012343,0.0002818977588222614
117,0.016900000000000002,-0.00033760927393095295
118,0.017190123456790128,-0.0002817052469763898
119,0.017482716049382712,-0.0003476618143685966
120,0.017777777777777778,-0.0001142231391876624
121,0.01807530864197531,0.0002122986096408199
122,0.018375308641975313,-6.510713555565254e-05
123,0.018677777777777776,8.594449857530471e-05
124,0.018982716049382717,3.7722966694063816e-05
125,0.019290123456790126,-9.631715380519897e-05
126,0.019600000000000003,5.007241381723628e-05
127,0.019912345679012344,-2.975075932095855e-05
128,0.02022716049382716,8.039033449590453e-05
129,0.020544444444444445,0.00019808710144399025
130,0.020864197530864194,-0.00012238235935127701
131,0.021186419753086418,-0.00019629587020511825
132,0.021511111111111113,0.00023879514488399177
133,0.021838271604938272,-0.0005309707581522165
134,0.022167901234567897,0.00020712142275432989
135,0.0225,1.834453547075039e-05
136,0.02283456790123457,8.40757329369126e-05
137,0.023171604938271608,-1.1293266125488673e-05
138,0.023511111111111108,0.00011268407299248161
139,0.023853086419753085,7.078289137855364e-05
140,0.02419753086419753,5.157699374518816e-06
141,0.02454444444444445,-0.00022666757285367558
142,0.024893827160493823,0.00019010024084603364
143,0.025245679012345677,0.00020568947874175663
144,0.0256,0.00014306683821300198
145,0.025956790123456794,0.00018532351991568246
146,0.026316049382716047,-6.971611908533282e-05
147,0.026677777777777776,0.00039866827655143103
148,0.027041975308641976,-0.00013202743784211117
149,0.027408641975308647,-0.0001010897638490906
150,0.027777777777777776,0.00012154593461647127
151,0.028149382716049384,-0.00020786557939450614
152,0.02852345679012346,0.00035620226476617206
153,0.028900000000000006,0.00023473964328319538
154,0.02927901234567901,-0.00016724680923406365
155,0.029660493827160492,-9.609866585172092e-05
156,0.030044444444444447,-0.00016966360266925997
157,0.03043086419753087,0.00012601938712654369
158,0.03081975308641975,-0.00020165273475215997
159,0.03121111111111111,-8.21512771589514e-05
160,0.03160493827160494,-0.00011874031563599555
161,0.03200123456790123,1.78483587818682e-05
162,0.0324,-0.00022365249294576772
163,0.03280123456790123,7.363423123898149e-05
164,0.03320493827160494,8.420592088199998e-06
165,0.033611111111111105,-0.00030357054277618714
166,0.03401975308641975,0.0004920942340827239
167,0.034430864197530865,0.00034845566292708406
168,0.03484444444444445,1.4794149256739244e-05
169,0.03526049382716049,-0.00027573884668518906
170,0.03567901234567901,-0.00018678087092295856
171,0.0361,0.00019510618794765265
172,0.03652345679012346,3.691293092780407e-05
173,0.036949382716049375,-0.00016338953276425137
174,0.037377777777777774,0.00013937004762277878
175,0.03780864197530864,0.00026375298089799257
176,0.03824197530864198,0.00027486754026326027
177,0.038677777777777776,-0.00014786529987839843
178,0.039116049382716046,0.0002128643922599469
179,0.039556790123456795,0.0003821960899743176
180,0.04000000000000001,1.586180796904283e-05
181,0.04044567901234568,-0.00019792123719938583
182,0.04089382716049383,6.253124185595328e-05
183,0.04134444444444445,-3.867767890259642e-05
184,0.04179753086419753,-0.000142990353492695
185,0.04225308641975308,0.0002946857398540106
186,0.04271111111111111,0.00022100437987162348
187,0.04317160493827161,-0.00027352948233151517
188,0.04363456790123457,1.790737188679381e-05
189,0.04409999999999999,-0.00013306268416410458
190,0.0445679012345679,0.00019355420775043274
191,0.04503827160493828,0.0003952400881362356
192,0.04551111111111112,-0.0005676985055656135
193,0.04598641975308642,-0.0003784726478989389
194,0.0464641975308642,0.0004040933765227505
195,0.04694444444444445,0.00012427492893378553
196,0.047427160493827156,0.0003177450146769427
197,0.04791234567901234,-4.753544679978422e-05
198,0.0484,0.00043294693237331595
199,0.04889012345679013,-0.00012342445140450814
200,0.04938271604938271,-0.00019966415902383124
201,0.04987777777777778,0.00015549467957840898
202,0.05037530864197531,0.0004816286218750769
203,0.050875308641975314,-0.00011817258250554115
204,0.05137777777777777,-0.00013425477644219954
205,0.051882716049382716,-0.00026681917984540664
206,0.05239012345679012,-0.00019748732162345987
207,0.0529,-1.7135715438431403e-05
208,0.05341234567901234,-4.374589750188981e-05
209,0.05392716049382716,2.2401236846409506e-06
210,0.05444444444444445,-0.00023422801635637313
211,0.0549641975308642,8.280439099030916e-05
212,0.055486419753086415,0.00013183827677351148
213,0.05601111111111111,-0.00010351753383057566
214,0.056538271604938274,-0.0001632940539053557
215,0.057067901234567904,0.00015748368453877368
216,0.0576,0.0004838740570433708
217,0.058134567901234564,-0.0005151456328579702
218,0.05867160493827161,4.474505104865524e-05
219,0.05921111111111112,0.00010550266269435162
220,0.05975308641975308,0.00013553217818702249
221,0.06029753086419753,-0.0005098602336589706
222,0.06084444444444445,-0.00022399442571225262
223,0.06139382716049383,0.00020283455470410244
224,0.06194567901234568,-5.099890257081501e-05
225,0.0625,-0.00020592415570278464
226,0.06305679012345679,-0.0002633766830922795
227,0.06361604938271606,6.018480598563191e-05
228,0.06417777777777779,0.00010068138649352575
229,0.06474197530864197,-0.00029443126604544127
230,0.06530864197530863,0.0002507081074204986
231,0.06587777777777777,2.649410495012242e-05
232,0.06644938271604937,-0.0001247982969951854
233,0.06702345679012346,-0.00017768270809740365
234,0.06760000000000001,-0.0004246690467560524
235,0.06817901234567902,0.00012931745581548954
236,0.06876049382716051,3.4868103626443275e-05
237,0.06934444444444443,-5.664212640626111e-05
238,0.06993086419753085,-3.491798993027668e-05
239,0.07051975308641975,0.00022754279742454963
240,0.07111111111111111,0.0002000314036369863
241,0.07170493827160494,8.217276740239716e-05
242,0.07230123456790125,4.670009953860123e-05
243,0.0729,-6.544245886428041e-05
244,0.07350123456790125,-9.290354582509351e-05
245,0.07410493827160493,1.1856808342357329e-05
246,0.0747111111111111,0.00047832953217222176
247,0.07531975308641975,9.171932426182503e-05
248,0.07593086419753087,4.969013284832262e-05
249,0.07654444444444444,-0.00013990150734805804
250,0.0771604938271605,0.00018804219523234242
251,0.07777901234567902,0.0005751308931438217
252,0.07840000000000001,-0.0006233634795262616
253,0.07902345679012344,-6.140515189186115e-05
254,0.07964938271604938,-9.917765806722104e-05
255,0.08027777777777777,0.00014272376796447723
256,0.08090864197530864,-6.752600139388631e-05
257,0.08154197530864198,2.9732471163686892e-05
258,0.08217777777777778,3.0050984633217535e-05
259,0.08281604938271606,-0.00011991684186623412
260,0.08345679012345678,0.0003523565202183534
261,0.0841,0.00047627708492026244
262,0.08474567901234567,0.00017624538772471023
263,0.08539382716049382,-6.356613576449891e-05
264,0.08604444444444445,-3.1821002824738204e-05
265,0.08669753086419754,-0.00036872205138352096
266,0.08735308641975309,-8.089305532423957e-05
267,0.08801111111111112,-0.00014789807719266024
268,0.08867160493827159,0.00025173239054913866
269,0.08933456790123456,8.236409748997426e-05
270,0.09,-0.00023222914814745405
271,0.0906679012345679,3.706114949674226e-05
272,0.09133827160493828,0.00014302571697527992
273,0.09201111111111111,0.0003247963468851284
274,0.09268641975308643,0.0005322627948015585
275,0.09336419753086421,0.00015887851968941297
276,0.09404444444444443,0.0002752394337111392
277,0.09472716049382715,-8.175916262394866e-05
278,0.09541234567901234,0.00014774529568748978
279,0.0961,0.00011534647474045504
280,0.09679012345679013,2.7106966166461405e-05
281,0.09748271604938272,0.00027693020137463007
282,0.0981777777777778,5.050442263360959e-05
283,0.09887530864197533,-0.00013216967994179199
284,0.0995753086419753,-1.032495114663223e-05
285,0.10027777777777777,-7.142308066100417e-05
286,0.1009827160493827,-0.0006245510425872987
287,0.10169012345679013,0.00012720862740671764
288,0.1024,8.163898130583986e-05
289,0.10311234567901235,0.0003607974591534697
290,0.10382716049382718,-1.4964970997359885e-05
291,0.10454444444444443,-0.00036048243189776985
292,0.10526419753086419,0.0004927310589424766
293,0.10598641975308641,-0.0003120638050675716
294,0.1067111111111111,-0.00031165732727476855
295,0.10743827160493827,-0.00036481384243633485
296,0.1081679012345679,-9.176525971241425e-05
297,0.10890000000000001,9.96860535684921e-05
298,0.10963456790123459,0.00020175396113603623
299,0.11037160493827158,-0.000392287130684607
300,0.1111111111111111,-6.394657935152887e-05
301,0.11185308641975308,0.00011598652915689819
302,0.11259753086419753,-1.7888547764017754e-05
303,0.11334444444444444,-0.0002165313046908841
304,0.11409382716049384,0.00012056644661705017
305,0.11484567901234569,0.0002624505379535353
306,0.11560000000000002,-0.0001345598787438882
307,0.11635679012345677,-0.00022835454363238035
308,0.11711604938271604,-0.00016145942786222734
309,0.11787777777777778,-8.175608942815377e-05
310,0.11864197530864197,-0.00019759282321751902
311,0.11940864197530865,0.00013074811450521177
312,0.12017777777777779,-0.00023085475497453515
313,0.1209493827160494,-0.00017312171017635954
314,0.12172345679012347,-0.00027799769107176637
315,0.12249999999999998,-1.521260683577706e-05
316,0.123279012345679,-5.67488537831404e-06
317,0.12406049382716049,0.00026597374696948537
318,0.12484444444444444,7.759380128889252e-05
319,0.12563086419753086,-0.0004454140146443561
320,0.12641975308641976,0.00010731528062392993
321,0.12721111111111114,0.0003466132018308641
322,0.12800493827160492,0.000231190023206065
323,0.1288012345679012,0.0005604759384132675
324,0.1296,-0.0003056742350710347
325,0.13040123456790123,-0.0002725127126046861
326,0.13120493827160493,-2.9034287219048126e-05
327,0.1320111111111111,0.0005195860805830478
328,0.13281975308641977,-0.0001518053637530118
329,0.13363086419753087,0.00013644881466363463
330,0.13444444444444442,4.195001606277031e-05
331,0.1352604938271605,-0.00024769010123047036
332,0.136079012345679,-0.00017491773853544013
333,0.1369,-0.00017667146360118518
334,0.13772345679012346,-0.0002645029243155066
335,0.13854938271604939,0.0003137321178142134
336,0.1393777777777778,1.1530729333553208e-05
337,0.14020864197530866,-7.721489484374837e-05
338,0.14104197530864196,-0.00013937632590179934
339,0.14187777777777777,0.00042270160162971934
340,0.14271604938271604,0.00017588874333876017
341,0.1435567901234568,0.0003194711236560586
342,0.1444,0.00036991778467445984
343,0.1452456790123457,-0.0002536681348250073
344,0.14609382716049385,0.00018682630266188873
345,0.14694444444444446,-0.00014669943188226728
346,0.1477975308641975,-0.00012298117974572875
347,0.14865308641975308,-0.00012549420644193955
348,0.1495111111111111,0.0001481748659920465
349,0.1503716049382716,0.00019638411373810503
350,0.15123456790123457,1.8041714116336232e-06
351,0.1521,-0.00013131401516882678
352,0.1529679012345679,-0.00018091734653432942
353,0.1538382716049383,-0.0003770111180113001
354,0.1547111111111111,0.0005892487069491705
355,0.1555864197530864,0.0002008692022695571
356,0.15646419753086419,0.0002867602599562632
357,0.15734444444444445,4.3387254217174245e-05
358,0.15822716049382718,2.7019696684390885e-05
359,0.15911234567901236,0.00010533975396418604
360,0.16000000000000003,0.0001501714036114672
361,0.1608901234567901,6.169228942117997e-05
362,0.1617827160493827,8.46507804059189e-06
363,0.16267777777777775,0.00019529880941456676
364,0.1635753086419753,-0.0003841510300854158
365,0.16447530864197532,-0.00039789538225221095
366,0.1653777777777778,0.00011430235417580219
367,0.16628271604938272,0.00021217540652753757
368,0.16719012345679013,-0.00025989668801990664
369,0.16809999999999997,-0.0003279137744213852
370,0.16901234567901233,-0.00022588567223682883
371,0.16992716049382714,0.0003876092347379133
372,0.17084444444444444,-0.00022538437551731413
373,0.1717641975308642,-0.0002618119390947209
374,0.17268641975308643,0.00019622788160506878
375,0.17361111111111113,-8.107868149208452e-05
376,0.1745382716049383,-0.00011872144439234495
377,0.17546790123456787,-0.00011500713018804362
378,0.17639999999999997,1.905387969518645e-05
379,0.17733456790123456,-0.0003575748905342176
380,0.1782716049382716,-0.00017450807676839972
381,0.17921111111111113,0.0006041677208325692
382,0.1801530864197531,0.0002556732574999427
383,0.18109753086419755,-0.00024417478640545784
384,0.18204444444444448,-0.0004027244826205014
385,0.1829938271604938,0.00043012353644046174
386,0.18394567901234568,-5.3897955308156585e-05
387,0.18489999999999998,-0.00014112595630253347
388,0.1858567901234568,0.00027991870679915516
389,0.18681604938271607,-1.6055546370893652e-06
390,0.1877777777777778,6.1748502203342005e-06
391,0.188741975308642,-1.3286216425335789e-05
392,0.18970864197530862,0.00034250847315288747
393,0.19067777777777775,-0.0003791203574232682
394,0.19164938271604937,0.00011527076564998504
395,0.19262345679012347,0.0002770777143521947
396,0.1936,-4.527426752063974e-05
397,0.194579012345679,-0.00020430174584882253
398,0.1955604938271605,-0.00017456054591951398
399,0.19654444444444447,0.00047668152121614274
400,0.19753086419753085,1.2920506744650368e-05
401,0.19851975308641973,0.0002879906090177367
402,0.1995111111111111,7.867704222370835e-05
403,0.20050493827160493,-6.713880558141884e-05
404,0.20150123456790123,0.000320435230169181
405,0.2025,1.8715331686047985e-05
406,0.20350123456790126,2.1556868231652445e-05
407,0.20450493827160496,-0.0003986732988258217
408,0.2055111111111111,-0.00012488829497041894
409,0.20651975308641973,7.801683125586191e-05
410,0.20753086419753086,-0.00022824708641847513
411,0.20854444444444445,-0.00021546325855237194
412,0.2095604938271605,6.832749681865068e-05
413,0.21057901234567902,8.743729078977756e-05
414,0.2116,-0.0004113462005436405
415,0.21262345679012348,7.241239586379979e-05
416,0.21364938271604936,-0.00013219087595250334
417,0.21467777777777777,-0.0001760320514724517
418,0.21570864197530865,0.00025250008860481246
419,0.21674197530864198,-7.097259901533274e-05
420,0.2177777777777778,1.592042299477162e-05
421,0.21881604938271607,0.000162062463420067
422,0.2198567901234568,0.00020199582721389578
423,0.22089999999999999,-5.007884505981618e-05
424,0.22194567901234566,6.216353529603675e-05
425,0.22299382716049382,0.00032882092448955524
426,0.22404444444444443,0.0002106851255193818
427,0.22509753086419754,-5.0246436882688236e-05
428,0.2261530864197531,1.6391701323946785e-05
429,0.2272111111111111,0.00011677455236978707
430,0.22827160493827162,-3.8072592874205795e-05
431,0.22933456790123455,-8.314909539942289e-05
432,0.2304,-8.477384136044928e-05
