,Mass (amu),Time (microseconds),Amplitude
0,0,0,-4.113513667721646
1,0.000001234567901234567901234567901,2,-0.3231376080714229
2,0.000004938271604938271604938271604,4,-2.896127071754856
3,0.00001111111111111111111111111111,6,0.5487633111244896
4,0.00001975308641975308641975308642,8,-0.3016292651866504
5,0.00003086419753086419753086419754,10,0.33329287998483154
6,0.00004444444444444444444444444445,12,0.28144317119812057
7,0.00006049382716049382716049382716,14,0.4602995732505542
8,0.00007901234567901234567901234568,16,-0.09787395882755111
9,0.0001,18,2.9749069036905307
10,0.0001234567901234567901234567901,20,1.9359966926356476
11,0.0001493827160493827160493827160,22,1.435650183620464
12,0.0001777777777777777777777777777,24,-3.7036222403831234
13,0.0002086419753086419753086419752,26,-0.9001521764261002
14,0.0002419753086419753086419753088,28,-4.4575126742764155
15,0.0002777777777777777777777777779,30,0.14506916504025572
16,0.0003160493827160493827160493828,32,-0.9515128164627412
17,0.0003567901234567901234567901235,34,-2.387478777571006
18,0.0004,36,2.132133154705245
19,0.0004456790123456790123456790123,38,-4.3933374960238805
20,0.0004938271604938271604938271604,40,-0.8682376513047549
21,0.0005444444444444444444444444443,42,1.0539346476363167
22,0.0005975308641975308641975308640,44,0.423994621391322
23,0.0006530864197530864197530864200,46,-2.1346675384053277
24,0.0007111111111111111111111111113,48,3.873203796427958
25,0.0007716049382716049382716049384,50,-1.9906277704004618
26,0.0008345679012345679012345679013,52,-0.44192674929800524
27,0.0009,54,-3.408936131216508
28,0.0009679012345679012345679012345,56,0.44320235205201286
29,0.001038271604938271604938271605,58,-3.9620317893924315
30,0.001111111111111111111111111111,60,1.142352010537987
31,0.001186419753086419753086419753,62,-2.1148503980296796
32,0.001264197530864197530864197531,64,2.6359641416343225
33,0.001344444444444444444444444445,66,-0.08619079650508045
34,0.001427160493827160493827160494,68,2.4099752557418177
35,0.001512345679012345679012345679,70,-0.8230535025759371
36,0.0016,72,1.1990190809034758
37,0.001690123456790123456790123457,74,-0.8704636943134382
38,0.001782716049382716049382716049,76,-0.5625466980869387
39,0.001877777777777777777777777777,78,-0.8041057038654039
40,0.001975308641975308641975308642,80,-0.14368090152457075
41,0.002075308641975308641975308642,82,-0.20994206937276033
42,0.002177777777777777777777777778,84,2.4648176314852477
43,0.002282716049382716049382716050,86,0.7128205328461095
44,0.002390123456790123456790123457,88,0.028305519354979602
45,0.0025,90,-0.6962768008551669
46,0.002612345679012345679012345679,92,-2.0374429624201844
47,0.002727160493827160493827160494,94,1.20750626539945
48,0.002844444444444444444444444444,96,-3.5501319744795725
49,0.002964197530864197530864197530,98,1.0143730802393862
50,0.003086419753086419753086419754,100,-0.3855085404957825
51,0.003211111111111111111111111111,102,2.468897196024971
52,0.003338271604938271604938271605,104,-1.0982153643816925
53,0.003467901234567901234567901235,106,0.022257827222297907
54,0.0036,108,-1.2311056510922607
55,0.003734567901234567901234567901,110,3.271316752421788
56,0.003871604938271604938271604938,112,0.7910096687328537
57,0.004011111111111111111111111111,114,1.2957597685361728
58,0.004153086419753086419753086419,116,-1.9933807669403594
59,0.004297530864197530864197530865,118,-0.23087406094717275
60,0.004444444444444444444444444445,120,-0.28079459933467477
61,0.004593827160493827160493827161,122,-2.985080566550557
62,0.004745679012345679012345679012,124,-1.2638986082545252
63,0.0049,126,2.5054989221716464
64,0.005056790123456790123456790123,128,-2.8978410640117493
65,0.005216049382716049382716049382,130,-1.1511156194509757
66,0.005377777777777777777777777777,132,0.35720711118497633
67,0.005541975308641975308641975308,134,1.4986673147510527
68,0.005708641975308641975308641976,136,1.991561106003989
69,0.005877777777777777777777777778,138,1.827626941380215
70,0.006049382716049382716049382716,140,0.4267252564194938
71,0.006223456790123456790123456790,142,3.3452006155539182
72,0.0064,144,0.06446484306766088
73,0.006579012345679012345679012345,146,-4.470184438613208
74,0.006760493827160493827160493827,148,-0.05386658460759437
75,0.006944444444444444444444444444,150,0.5986813836382393
76,0.007130864197530864197530864197,152,3.9760122445728485
77,0.007319753086419753086419753087,154,0.5528947286683552
78,0.007511111111111111111111111112,156,-1.1482243447299232
79,0.007704938271604938271604938272,158,-1.5928455476173609
80,0.007901234567901234567901234568,160,1.368775678489908
81,0.0081,162,1.1471125574012606
82,0.008301234567901234567901234568,164,1.9052447531382337
83,0.008504938271604938271604938271,166,1.1126155568317173
84,0.008711111111111111111111111110,168,-1.6230937876058213
85,0.008919753086419753086419753086,170,-2.006939446862318
86,0.009130864197530864197530864198,172,0.3503110463018665
87,0.009344444444444444444444444445,174,-2.215914138521324
88,0.009560493827160493827160493828,176,1.4806589679431814
89,0.009779012345679012345679012346,178,-0.7387690429029788
90,0.01,180,4.321118531040686
91,0.01022345679012345679012345679,182,0.24164388547886215
92,0.01044938271604938271604938271,184,-0.7805310691134141
93,0.01067777777777777777777777777,186,-2.435625359148568
94,0.01090864197530864197530864197,188,1.3990482049538764
95,0.01114197530864197530864197532,190,-4.469600484711015
96,0.01137777777777777777777777778,192,-3.765922409232821
97,0.01161604938271604938271604939,194,-3.9910215857309344
98,0.01185679012345679012345679013,196,-1.2489595241917026
99,0.0121,198,-0.6830859031209334
100,0.01234567901234567901234567901,200,-1.0876869310122843
101,0.01259382716049382716049382716,202,0.22115835690448918
102,0.01284444444444444444444444444,204,2.492567224460712
103,0.01309753086419753086419753085,206,-1.191221703957583
104,0.01335308641975308641975308643,208,-2.182519399098949
105,0.01361111111111111111111111112,210,0.7991076340524227
106,0.01387160493827160493827160494,212,0.6166804821743801
107,0.01413456790123456790123456790,214,-0.3847521835763442
108,0.0144,216,-1.625973865575696
109,0.01466790123456790123456790123,218,3.5851384167820886
110,0.01493827160493827160493827160,220,-1.977008451145457
111,0.01521111111111111111111111110,222,0.7217721962811103
112,0.01548641975308641975308641974,224,3.1345272237107222
113,0.01576419753086419753086419754,226,-0.8783531565915237
114,0.01604444444444444444444444445,228,1.5630355348484501
115,0.01632716049382716049382716050,230,2.4545430286403795
116,0.01661234567901234567901234568,232,-2.9538724096232536
117,0.0169,234,0.34359595421420547
118,0.01719012345679012345679012345,236,4.508077720813158
119,0.01748271604938271604938271604,238,-2.69484020169164
120,0.01777777777777777777777777777,240,1.3512188621672971
121,0.01807530864197530864197530863,242,0.5403717167792025
122,0.01837530864197530864197530865,244,-3.101607397573227
123,0.01867777777777777777777777779,246,1.663767694683388
124,0.01898271604938271604938271606,248,0.8401297214249317
125,0.01929012345679012345679012346,250,1.8394167298928585
126,0.0196,252,0.7662374946156643
127,0.01991234567901234567901234568,254,3.931503946096307
128,0.02022716049382716049382716049,256,1.176217440438621
129,0.02054444444444444444444444443,258,-0.08537686329112024
130,0.02086419753086419753086419752,260,3.1038839717944744
131,0.02118641975308641975308641977,262,-2.3439550920948347
132,0.02151111111111111111111111112,264,-0.09715149850498125
133,0.02183827160493827160493827161,266,3.854621960086253
134,0.02216790123456790123456790124,268,3.497301561821894
135,0.0225,270,-0.9175427357997141
136,0.02283456790123456790123456790,272,-1.7065871309165885
137,0.02317160493827160493827160493,274,1.9610697167120097
138,0.02351111111111111111111111110,276,-1.7059911648404487
139,0.02385308641975308641975308641,278,-5.503115709731165
140,0.02419753086419753086419753088,280,1.1240879643422819
141,0.02454444444444444444444444445,282,1.6677209935461204
142,0.02489382716049382716049382717,284,-1.011528414850558
143,0.02524567901234567901234567902,286,0.7060510855416132
144,0.0256,288,1.0205595103336043
145,0.02595679012345679012345679012,290,0.6515204734070119
146,0.02631604938271604938271604938,292,-0.614596756000872
147,0.02667777777777777777777777777,294,0.9974412455457206
148,0.02704197530864197530864197529,296,2.8522974055688595
149,0.02740864197530864197530864199,298,0.6811351281632543
150,0.02777777777777777777777777779,300,-2.5065232541353657
151,0.02814938271604938271604938272,302,-0.25161437771660655
152,0.02852345679012345679012345679,304,1.0520767867515313
153,0.0289,306,-0.0355147845667185
154,0.02927901234567901234567901234,308,0.24902852494459313
155,0.02966049382716049382716049382,310,-0.4545093165136978
156,0.03004444444444444444444444443,312,0.30361698778899116
157,0.03043086419753086419753086418,314,-1.4936020924059572
158,0.03081975308641975308641975310,316,-0.6131111895773335
159,0.03121111111111111111111111112,318,0.31693503171475707
160,0.03160493827160493827160493828,320,-0.7954344541680178
161,0.03200123456790123456790123457,322,-0.2936785561036795
162,0.0324,324,3.8555822006487332
163,0.03280123456790123456790123456,326,1.3974984280441747
164,0.03320493827160493827160493826,328,1.460580215999865
165,0.03361111111111111111111111110,330,4.552475286897623
166,0.03401975308641975308641975307,332,-3.128510787181818
167,0.03443086419753086419753086421,334,-3.337496248673922
168,0.03484444444444444444444444446,336,0.9818677234056835
169,0.03526049382716049382716049384,338,1.8179363710546552
170,0.03567901234567901234567901235,340,-0.10595692739290691
171,0.0361,342,-0.5315049937630447
172,0.03652345679012345679012345679,344,2.841451059865256
173,0.03694938271604938271604938271,346,0.7957656696092671
174,0.03737777777777777777777777776,348,3.15754315527312
175,0.03780864197530864197530864196,350,-2.856477249974961
176,0.03824197530864197530864197533,352,-0.007047711568591466
177,0.03867777777777777777777777779,354,-1.425812207073073
178,0.03911604938271604938271604939,356,-2.590864923605729
179,0.03955679012345679012345679013,358,2.8149136269047674
180,0.04,360,0.5057018227378176
181,0.04044567901234567901234567901,362,-2.245762679771316
182,0.04089382716049382716049382715,364,-3.708863163990489
183,0.04134444444444444444444444443,366,0.16066493700306095
184,0.04179753086419753086419753085,368,3.2076868886488725
185,0.04225308641975308641975308644,370,-1.212084859827467
186,0.04271111111111111111111111112,372,0.8559188293052491
187,0.04317160493827160493827160495,374,-3.39274750310037
188,0.04363456790123456790123456791,376,1.2323310505957603
189,0.0441,378,0.41244948761704514
190,0.04456790123456790123456790123,380,-1.3256628277996865
191,0.04503827160493827160493827160,382,-1.362791245264262
192,0.04551111111111111111111111110,384,-1.4404561156150382
193,0.04598641975308641975308641973,386,-0.7074830879860463
194,0.04646419753086419753086419755,388,-0.310456091757397
195,0.04694444444444444444444444446,390,1.4490288418008679
196,0.04742716049382716049382716050,392,0.5244137033174122
197,0.04791234567901234567901234568,394,-2.737482242642657
198,0.0484,396,1.5566385271066145
199,0.04889012345679012345679012345,398,-4.5023856610357305
200,0.04938271604938271604938271604,400,-1.303708928118139
201,0.04987777777777777777777777776,402,1.9099532674334754
202,0.05037530864197530864197530862,404,2.2159976394224388
203,0.05087530864197530864197530866,406,2.3073808595748844
204,0.05137777777777777777777777779,408,1.235365091144965
205,0.05188271604938271604938271606,410,3.1748529560825154
206,0.05239012345679012345679012346,412,0.4281392689712613
207,0.0529,414,-0.5807056209500123
208,0.05341234567901234567901234567,416,-2.0502519552572394
209,0.05392716049382716049382716048,418,1.5151426015651919
210,0.05444444444444444444444444443,420,-3.1027390611982764
211,0.05496419753086419753086419751,422,1.2677491046139602
212,0.05548641975308641975308641977,424,0.5907494138393004
213,0.05601111111111111111111111113,426,0.22749065616004377
214,0.05653827160493827160493827162,428,-3.642503012484621
215,0.05706790123456790123456790124,430,-2.3690532919146694
216,0.0576,432,-0.26510503788444195
217,0.05813456790123456790123456790,434,4.261815366961222
218,0.05867160493827160493827160493,436,0.5801382759151322
219,0.05921111111111111111111111109,438,-1.0280528621707479
220,0.05975308641975308641975308640,440,-1.1628314231015162
221,0.06029753086419753086419753089,442,-0.5230871296911955
222,0.06084444444444444444444444446,444,1.8845176181269165
223,0.06139382716049382716049382717,446,-1.2768943404322752
224,0.06194567901234567901234567902,448,-3.388202134459499
225,0.0625,450,1.927270538450631
226,0.06305679012345679012345679012,452,-2.8820466893613457
227,0.06361604938271604938271604937,454,-0.08958721934058057
228,0.06417777777777777777777777776,456,0.7568076898110417
229,0.06474197530864197530864197529,458,2.013441069527165
230,0.06530864197530864197530864200,460,1.3091159116415103
231,0.06587777777777777777777777779,462,2.45404700140926
232,0.06644938271604938271604938273,464,1.1584165689803083
233,0.06702345679012345679012345680,466,-1.410957027149836
234,0.0676,468,1.4083258109589234
235,0.06817901234567901234567901234,470,-2.5230276710118513
236,0.06876049382716049382716049382,472,-0.28784438819904723
237,0.06934444444444444444444444443,474,4.515203564895438
238,0.06993086419753086419753086417,476,-0.724888251947827
239,0.07051975308641975308641975311,478,1.2864277031111697
240,0.07111111111111111111111111113,480,-0.427305582151491
241,0.07170493827160493827160493828,482,-2.2921976743522783
242,0.07230123456790123456790123457,484,0.6155874005150463
243,0.0729,486,1.115975326359637
244,0.07350123456790123456790123456,488,3.0064377771989124
245,0.07410493827160493827160493826,490,-0.11758747516268689
246,0.07471111111111111111111111109,492,-3.035005298287077
247,0.07531975308641975308641975306,494,2.43322165123045
248,0.07593086419753086419753086422,496,-1.8552473932158409
249,0.07654444444444444444444444446,498,1.5023359840266806
250,0.07716049382716049382716049384,500,0.5667152890084407
251,0.07777901234567901234567901235,502,0.5717239712520776
252,0.0784,504,0.31011533316711926
253,0.07902345679012345679012345678,506,-2.2135738148674156
254,0.07964938271604938271604938270,508,0.14583691986399183
255,0.08027777777777777777777777776,510,-1.5778352201543726
256,0.08090864197530864197530864195,512,1.5563747248967692
257,0.08154197530864197530864197533,514,-0.14107628708870823
258,0.08217777777777777777777777780,516,-0.7814678297788987
259,0.08281604938271604938271604940,518,2.186000743687117
260,0.08345679012345679012345679013,520,1.7867408413659032
261,0.0841,522,-1.088999594142494
262,0.08474567901234567901234567901,524,0.5381029937669092
263,0.08539382716049382716049382715,526,0.8853754574555566
264,0.08604444444444444444444444442,528,-0.6527965576933183
265,0.08669753086419753086419753084,530,-0.8854072281575315
266,0.08735308641975308641975308645,532,-1.813112607599683
267,0.08801111111111111111111111113,534,-1.4059274999448539
268,0.08867160493827160493827160495,536,-1.5274516729004102
269,0.08933456790123456790123456791,538,-1.1266779353092733
270,0.09,540,0.15408544861439558
271,0.09066790123456790123456790123,542,-1.3357868597019327
272,0.09133827160493827160493827159,544,0.32104566419002684
273,0.09201111111111111111111111109,546,-1.0029355716941935
274,0.09268641975308641975308641973,548,1.1053306932150206
275,0.09336419753086419753086419756,550,-2.6551491977785577
276,0.09404444444444444444444444446,552,-1.9387588295287248
277,0.09472716049382716049382716051,554,2.539307210856045
278,0.09541234567901234567901234569,556,-0.8444637692315771
279,0.0961,558,2.4678380984112605
280,0.09679012345679012345679012345,560,-2.4289118762114947
281,0.09748271604938271604938271604,562,0.741386067890315
282,0.09817777777777777777777777776,564,-2.253854917974457
283,0.09887530864197530864197530861,566,-3.7568977185804604
284,0.09957530864197530864197530867,568,-0.1190456308508417
285,0.1002777777777777777777777778,570,2.8464789705279627
286,0.1009827160493827160493827161,572,4.8023368629591525
287,0.1016901234567901234567901235,574,-2.751287547957707
288,0.1024,576,-3.3166717258522316
289,0.1031123456790123456790123457,578,-2.5067527445357856
290,0.1038271604938271604938271605,580,1.0617760403636056
291,0.1045444444444444444444444444,582,-2.602314659481733
292,0.1052641975308641975308641975,584,1.6831523903338648
293,0.1059864197530864197530864198,586,-1.3579984173884176
294,0.1067111111111111111111111111,588,-2.493584552294308
295,0.1074382716049382716049382716,590,-0.3540431175107972
296,0.1081679012345679012345679012,592,-0.23460629669635144
297,0.1089,594,-0.4266514490046653
298,0.1096345679012345679012345679,596,0.41510593726421424
299,0.1103716049382716049382716049,598,0.09999073781755953
300,0.1111111111111111111111111111,600,-1.5244930411817306
301,0.1118530864197530864197530864,602,-1.2995979181909751
302,0.1125975308641975308641975309,604,3.439122754335744
303,0.1133444444444444444444444445,606,-1.0138736035367077
304,0.1140938271604938271604938272,608,0.328664152071623
305,0.1148456790123456790123456790,610,0.8391005679414055
306,0.1156,612,0.9486891160718802
307,0.1163567901234567901234567901,614,0.5990240156635848
308,0.1171160493827160493827160494,616,1.7530333750206533
309,0.1178777777777777777777777778,618,-3.2675669161721603
310,0.1186419753086419753086419753,620,-0.9796272055092232
311,0.1194086419753086419753086420,622,-4.061161009143115
312,0.1201777777777777777777777778,624,-1.8246537291946598
313,0.1209493827160493827160493827,626,1.1689894367155498
314,0.1217234567901234567901234568,628,1.335670637143281
315,0.1225,630,0.5445144190587937
316,0.1232790123456790123456790123,632,-1.413731111805839
317,0.1240604938271604938271604938,634,0.3877287718349312
318,0.1248444444444444444444444444,636,0.06573557946049743
319,0.1256308641975308641975308642,638,3.420620039637232
320,0.1264197530864197530864197531,640,2.2737457759307054
321,0.1272111111111111111111111111,642,-0.9702729011951055
322,0.1280049382716049382716049383,644,0.37591929808235913
323,0.1288012345679012345679012346,646,-2.8128104008229866
324,0.1296,648,-0.41471303211673105
325,0.1304012345679012345679012346,650,-1.195661006988692
326,0.1312049382716049382716049383,652,1.185417091777263
327,0.1320111111111111111111111111,654,1.5544089075583416
328,0.1328197530864197530864197531,656,-3.7642006228024765
329,0.1336308641975308641975308642,658,-2.8323977778296228
330,0.1344444444444444444444444445,660,-2.2691735262734762
331,0.1352604938271604938271604938,662,2.6738772552461763
332,0.1360790123456790123456790124,664,4.688855408186636
333,0.1369,666,0.4289053008664655
334,0.1377234567901234567901234568,668,0.9755726840480171
335,0.1385493827160493827160493827,670,2.963484185660925
336,0.1393777777777777777777777778,672,-1.4147386531089914
337,0.1402086419753086419753086419,674,-1.3828358693646527
338,0.1410419753086419753086419753,676,-1.5392381327385214
339,0.1418777777777777777777777778,678,-0.8614238544244293
340,0.1427160493827160493827160494,680,-0.1624872375948322
341,0.1435567901234567901234567901,682,1.5684741226277554
342,0.1444,684,0.1585896093953775
343,0.1452456790123456790123456790,686,0.37839179632991027
344,0.1460938271604938271604938271,688,-1.9041388179302685
345,0.1469444444444444444444444444,690,-1.3018416741455026
346,0.1477975308641975308641975308,692,2.44745988969703
347,0.1486530864197530864197530865,694,-4.75534092754102
348,0.1495111111111111111111111111,696,-2.2081612223659426
349,0.1503716049382716049382716050,698,2.0821601710078976
350,0.1512345679012345679012345679,700,-1.098643172010308
351,0.1521,702,-1.0894814735069434
352,0.1529679012345679012345679012,704,-1.0566876421340172
353,0.1538382716049382716049382716,706,-1.8061318968764193
354,0.1547111111111111111111111111,708,2.0204694929542066
