,Mass (amu),Time (microseconds),Amplitude
0,0,0,2.23314015273855
1,0.000001234567901234567901234567901,2,2.2908074252464186
2,0.000004938271604938271604938271604,4,0.7848302720545987
3,0.00001111111111111111111111111111,6,-2.461278032859433
4,0.00001975308641975308641975308642,8,-2.59802368293552
5,0.00003086419753086419753086419754,10,3.1761308110572446
6,0.00004444444444444444444444444445,12,0.08976328814173691
7,0.00006049382716049382716049382716,14,-1.929635567054359
8,0.00007901234567901234567901234568,16,-1.3262821225792663
9,0.0001,18,1.0984897335521144
10,0.0001234567901234567901234567901,20,1.2815836810498167
11,0.0001493827160493827160493827160,22,0.9496664808031097
12,0.0001777777777777777777777777777,24,0.5436534200653871
13,0.0002086419753086419753086419752,26,-1.4744524810414332
14,0.0002419753086419753086419753088,28,0.9511198752295154
15,0.0002777777777777777777777777779,30,1.7964266324554652
16,0.0003160493827160493827160493828,32,1.5354297481063586
17,0.0003567901234567901234567901235,34,-1.0263932277196115
18,0.0004,36,-2.1549000065215616
19,0.0004456790123456790123456790123,38,-2.2658004681554127
20,0.0004938271604938271604938271604,40,-1.5120742487052985
21,0.0005444444444444444444444444443,42,0.17358813355577216
22,0.0005975308641975308641975308640,44,0.22331736993583304
23,0.0006530864197530864197530864200,46,-2.5635765227354126
24,0.0007111111111111111111111111113,48,0.6946702921142472
25,0.0007716049382716049382716049384,50,-0.37120147913782636
26,0.0008345679012345679012345679013,52,-1.216855795344702
27,0.0009,54,0.4541402382191577
28,0.0009679012345679012345679012345,56,-1.9465523989594244
29,0.001038271604938271604938271605,58,-0.6874131407209767
30,0.001111111111111111111111111111,60,-0.6966770457081143
31,0.001186419753086419753086419753,62,3.2684090482163457
32,0.001264197530864197530864197531,64,3.581780861294585
33,0.001344444444444444444444444445,66,-1.750722103694752
34,0.001427160493827160493827160494,68,-0.33003088149552157
35,0.001512345679012345679012345679,70,0.373748387380379
36,0.0016,72,-1.77071418395131
37,0.001690123456790123456790123457,74,0.6656633019891912
38,0.001782716049382716049382716049,76,-3.407436106341979
39,0.001877777777777777777777777777,78,0.7894468912070608
40,0.001975308641975308641975308642,80,3.6558138866274232
41,0.002075308641975308641975308642,82,-2.122347333642917
42,0.002177777777777777777777777778,84,-1.8222281427041458
43,0.002282716049382716049382716050,86,1.6197865727435066
44,0.002390123456790123456790123457,88,-1.4139466218519467
45,0.0025,90,3.2927183346887046
46,0.002612345679012345679012345679,92,-0.35638288556805064
47,0.002727160493827160493827160494,94,0.10167942625089361
48,0.002844444444444444444444444444,96,-2.9898545103585947
49,0.002964197530864197530864197530,98,2.169248876241833
50,0.003086419753086419753086419754,100,0.7204194527754112
51,0.003211111111111111111111111111,102,-0.7026697620594347
52,0.003338271604938271604938271605,104,2.5228463141884023
53,0.003467901234567901234567901235,106,3.6619810319461763
54,0.0036,108,0.23526288073405144
55,0.003734567901234567901234567901,110,-1.138810680460457
56,0.003871604938271604938271604938,112,-2.7751355556479065
57,0.004011111111111111111111111111,114,1.0831164926629948
58,0.004153086419753086419753086419,116,1.5235845240507642
59,0.004297530864197530864197530865,118,0.4595288647815541
60,0.004444444444444444444444444445,120,-1.718373132895308
61,0.004593827160493827160493827161,122,3.9324715257312395
62,0.004745679012345679012345679012,124,-1.7854811399533776
63,0.0049,126,0.6745913043235794
64,0.005056790123456790123456790123,128,0.566394164166359
65,0.005216049382716049382716049382,130,2.0722670825139664
66,0.005377777777777777777777777777,132,4.390923835096191
67,0.005541975308641975308641975308,134,1.008405675592153
68,0.005708641975308641975308641976,136,2.359756958674362
69,0.005877777777777777777777777778,138,0.18395829627349045
70,0.006049382716049382716049382716,140,3.6087072261592676
71,0.006223456790123456790123456790,142,1.6222910969538564
72,0.0064,144,2.693865629668386
73,0.006579012345679012345679012345,146,-1.8370280018179421
74,0.006760493827160493827160493827,148,-0.9479970670515947
75,0.006944444444444444444444444444,150,4.997773589885608
76,0.007130864197530864197530864197,152,-2.6130713721398484
77,0.007319753086419753086419753087,154,7.2689021965712355
78,0.007511111111111111111111111112,156,-1.8816479010928018
79,0.007704938271604938271604938272,158,4.095376800464689
80,0.007901234567901234567901234568,160,0.3027910012981626
81,0.0081,162,0.1509960210616995
82,0.008301234567901234567901234568,164,-0.17439971973334123
83,0.008504938271604938271604938271,166,3.119380217439727
84,0.008711111111111111111111111110,168,-0.9845502821509794
85,0.008919753086419753086419753086,170,-1.2696241579720824
86,0.009130864197530864197530864198,172,-0.7034049572312685
87,0.009344444444444444444444444445,174,-0.36283421262904375
88,0.009560493827160493827160493828,176,-0.4092005457423979
89,0.009779012345679012345679012346,178,-0.3260807164710516
90,0.01,180,-1.2964144484695843
91,0.01022345679012345679012345679,182,-3.780776240405025
92,0.01044938271604938271604938271,184,1.720639772529147
93,0.01067777777777777777777777777,186,-0.5896239966265927
94,0.01090864197530864197530864197,188,-1.4933909083440962
95,0.01114197530864197530864197532,190,-0.3364243885574538
96,0.01137777777777777777777777778,192,-3.188489448544393
97,0.01161604938271604938271604939,194,0.9426027064271412
98,0.01185679012345679012345679013,196,-1.4807079622137336
99,0.0121,198,-1.7065809831801189
100,0.01234567901234567901234567901,200,0.1653252100814245
101,0.01259382716049382716049382716,202,0.4806582457228057
102,0.01284444444444444444444444444,204,3.0774072513848627
103,0.01309753086419753086419753085,206,3.2498953896364573
104,0.01335308641975308641975308643,208,-1.3852541053603482
105,0.01361111111111111111111111112,210,-3.7879415856214806
106,0.01387160493827160493827160494,212,3.5781196538469655
107,0.01413456790123456790123456790,214,3.5975561031862813
108,0.0144,216,3.1249595418649743
109,0.01466790123456790123456790123,218,1.6535022740333385
110,0.01493827160493827160493827160,220,-0.4374959272453866
111,0.01521111111111111111111111110,222,0.6081126886505335
112,0.01548641975308641975308641974,224,-0.545511756940239
113,0.01576419753086419753086419754,226,3.2243065653970877
114,0.01604444444444444444444444445,228,-1.5171755513288243
115,0.01632716049382716049382716050,230,1.8832164208600055
116,0.01661234567901234567901234568,232,0.08979557331266674
117,0.0169,234,-2.6211884175656803
118,0.01719012345679012345679012345,236,-3.023510060034227
119,0.01748271604938271604938271604,238,4.221317575687526
120,0.01777777777777777777777777777,240,-1.668637243211635
121,0.01807530864197530864197530863,242,0.19131464281314398
122,0.01837530864197530864197530865,244,1.2659009879920173
123,0.01867777777777777777777777779,246,1.7132611118139314
124,0.01898271604938271604938271606,248,2.898782429316451
125,0.01929012345679012345679012346,250,5.7044040712533395
126,0.0196,252,5.100543702439696
127,0.01991234567901234567901234568,254,1.1412713119768763
128,0.02022716049382716049382716049,256,-0.0022517472768972795
129,0.02054444444444444444444444443,258,2.396518883387979
130,0.02086419753086419753086419752,260,4.308585969991125
131,0.02118641975308641975308641977,262,-1.4640423392799051
132,0.02151111111111111111111111112,264,-1.21739381721036
133,0.02183827160493827160493827161,266,0.37401435034643726
134,0.02216790123456790123456790124,268,4.479139308002325
135,0.0225,270,1.0770315526543692
136,0.02283456790123456790123456790,272,3.0856545337710206
137,0.02317160493827160493827160493,274,-0.5020530542952928
138,0.02351111111111111111111111110,276,1.0453573533319314
139,0.02385308641975308641975308641,278,-0.06000598455087241
140,0.02419753086419753086419753088,280,-1.0042715121942847
141,0.02454444444444444444444444445,282,0.026065226645317383
142,0.02489382716049382716049382717,284,1.104966454580504
143,0.02524567901234567901234567902,286,-1.541222378639472
144,0.0256,288,1.8180956520542875
145,0.02595679012345679012345679012,290,1.3603708610689265
146,0.02631604938271604938271604938,292,0.8402969777196307
147,0.02667777777777777777777777777,294,1.3037104042153778
148,0.02704197530864197530864197529,296,1.0541736125206513
149,0.02740864197530864197530864199,298,-0.6909439142930616
150,0.02777777777777777777777777779,300,1.1434380245509053
151,0.02814938271604938271604938272,302,2.167254507514742
152,0.02852345679012345679012345679,304,1.1890670290186938
153,0.0289,306,0.4788005878156041
154,0.02927901234567901234567901234,308,1.2812038336784783
155,0.02966049382716049382716049382,310,-0.290209781446403
156,0.03004444444444444444444444443,312,0.9081757623479912
157,0.03043086419753086419753086418,314,4.099123392001951
158,0.03081975308641975308641975310,316,2.0960040478081785
159,0.03121111111111111111111111112,318,0.15196201932339096
160,0.03160493827160493827160493828,320,-0.5513552731459777
161,0.03200123456790123456790123457,322,-0.7661114150150458
162,0.0324,324,-7.342168835420321
163,0.03280123456790123456790123456,326,2.608119763077323
164,0.03320493827160493827160493826,328,-1.5766369924128916
165,0.03361111111111111111111111110,330,-0.9083834454857453
166,0.03401975308641975308641975307,332,0.9669946053373464
167,0.03443086419753086419753086421,334,-2.430598832464894
168,0.03484444444444444444444444446,336,-1.3745064809104843
169,0.03526049382716049382716049384,338,3.376284650960409
170,0.03567901234567901234567901235,340,-1.902557716650093
171,0.0361,342,2.13010417670472
172,0.03652345679012345679012345679,344,-0.966745015475039
173,0.03694938271604938271604938271,346,-1.1952491156098835
174,0.03737777777777777777777777776,348,2.7580223662170043
175,0.03780864197530864197530864196,350,1.39083998821445
176,0.03824197530864197530864197533,352,1.5848936065584556
177,0.03867777777777777777777777779,354,2.43949575203745
178,0.03911604938271604938271604939,356,-3.674991639462678
179,0.03955679012345679012345679013,358,0.9343742082628398
180,0.04,360,1.7329599158678743
181,0.04044567901234567901234567901,362,0.4066239804136223
182,0.04089382716049382716049382715,364,3.060286147601418
183,0.04134444444444444444444444443,366,0.6110945323353597
184,0.04179753086419753086419753085,368,3.875944951508896
185,0.04225308641975308641975308644,370,-3.6717880945180768
186,0.04271111111111111111111111112,372,3.467975026605832
187,0.04317160493827160493827160495,374,2.1812853718751284
188,0.04363456790123456790123456791,376,-2.0491583530925097
189,0.0441,378,1.0967570131602287
190,0.04456790123456790123456790123,380,1.4920965547002212
191,0.04503827160493827160493827160,382,-1.4538075840429678
192,0.04551111111111111111111111110,384,1.6732871536946212
193,0.04598641975308641975308641973,386,-1.4221657032831407
194,0.04646419753086419753086419755,388,1.309223633747734
195,0.04694444444444444444444444446,390,-0.5261501199960659
196,0.04742716049382716049382716050,392,2.162196447275791
197,0.04791234567901234567901234568,394,0.009048751373254465
198,0.0484,396,-0.5223603561343647
199,0.04889012345679012345679012345,398,-0.6653236596274886
200,0.04938271604938271604938271604,400,0.7375094425826701
201,0.04987777777777777777777777776,402,3.9250735469333433
202,0.05037530864197530864197530862,404,-1.6094945209896467
203,0.05087530864197530864197530866,406,6.111027685794559
204,0.05137777777777777777777777779,408,-1.134792521928817
205,0.05188271604938271604938271606,410,-0.05615002967438193
206,0.05239012345679012345679012346,412,-4.0414122500487135
207,0.0529,414,1.2479881891294518
208,0.05341234567901234567901234567,416,0.09101145296088761
209,0.05392716049382716049382716048,418,-2.5572339777598656
210,0.05444444444444444444444444443,420,4.758664510223307
211,0.05496419753086419753086419751,422,-3.2146735732430094
212,0.05548641975308641975308641977,424,-1.1481028531226551
213,0.05601111111111111111111111113,426,-1.5618193232351492
214,0.05653827160493827160493827162,428,1.598165027338607
215,0.05706790123456790123456790124,430,-1.3851724902480478
216,0.0576,432,-0.7108842345665374
217,0.05813456790123456790123456790,434,3.3940427250397005
218,0.05867160493827160493827160493,436,-0.2813556775652711
219,0.05921111111111111111111111109,438,4.386199838491411
220,0.05975308641975308641975308640,440,2.329585610158032
221,0.06029753086419753086419753089,442,2.9241047662087793
222,0.06084444444444444444444444446,444,-1.5245106290050943
223,0.06139382716049382716049382717,446,1.2195101933843477
224,0.06194567901234567901234567902,448,1.9988580691606777
225,0.0625,450,1.7689441864688422
226,0.06305679012345679012345679012,452,2.925497447640272
227,0.06361604938271604938271604937,454,0.8262773457387365
228,0.06417777777777777777777777776,456,-0.08770657835945496
229,0.06474197530864197530864197529,458,-0.3662230638593628
230,0.06530864197530864197530864200,460,3.253751040994552
231,0.06587777777777777777777777779,462,3.4688206158120685
232,0.06644938271604938271604938273,464,0.9212766249212421
233,0.06702345679012345679012345680,466,-0.06658070374193337
234,0.0676,468,-2.696435411814801
235,0.06817901234567901234567901234,470,0.8283320174759048
236,0.06876049382716049382716049382,472,1.8348112969899661
237,0.06934444444444444444444444443,474,-1.9995186982805688
238,0.06993086419753086419753086417,476,-0.6170824990009803
239,0.07051975308641975308641975311,478,4.0101491494814026
240,0.07111111111111111111111111113,480,-2.963621033138155
241,0.07170493827160493827160493828,482,-6.951419103379723
242,0.07230123456790123456790123457,484,-2.2862182332890257
243,0.0729,486,0.20774287864441893
244,0.07350123456790123456790123456,488,1.2734259201037295
245,0.07410493827160493827160493826,490,-3.7538546869573626
246,0.07471111111111111111111111109,492,-0.5287899084644572
247,0.07531975308641975308641975306,494,0.7638763360184598
248,0.07593086419753086419753086422,496,1.5085935014847949
249,0.07654444444444444444444444446,498,1.5795681182184376
250,0.07716049382716049382716049384,500,4.6290077110340295
251,0.07777901234567901234567901235,502,-6.297437595726585
252,0.0784,504,0.07930880908653039
253,0.07902345679012345679012345678,506,0.8592213991213804
254,0.07964938271604938271604938270,508,-1.1186904136619034
255,0.08027777777777777777777777776,510,1.1450935688479735
256,0.08090864197530864197530864195,512,-1.7587939186721568
257,0.08154197530864197530864197533,514,4.911812307994688
258,0.08217777777777777777777777780,516,0.40684782569883177
259,0.08281604938271604938271604940,518,0.08934180638896352
260,0.08345679012345679012345679013,520,0.458010388476827
261,0.0841,522,0.18647394522508232
262,0.08474567901234567901234567901,524,1.7246156892403124
263,0.08539382716049382716049382715,526,-2.3633137381010205
264,0.08604444444444444444444444442,528,-2.9519398988250956
265,0.08669753086419753086419753084,530,5.43075633362915
266,0.08735308641975308641975308645,532,2.0497174424880265
267,0.08801111111111111111111111113,534,0.8726151567938926
268,0.08867160493827160493827160495,536,-1.1805998723312376
269,0.08933456790123456790123456791,538,-1.028703227983681
270,0.09,540,0.5007463668001574
271,0.09066790123456790123456790123,542,1.1224504172285013
272,0.09133827160493827160493827159,544,-3.1940510687195323
273,0.09201111111111111111111111109,546,1.7989406002033026
274,0.09268641975308641975308641973,548,-0.8590233780580896
275,0.09336419753086419753086419756,550,0.519466682557946
276,0.09404444444444444444444444446,552,-0.6699519100476313
277,0.09472716049382716049382716051,554,-1.2906394912159778
278,0.09541234567901234567901234569,556,3.451729197015676
279,0.0961,558,0.03463057485243241
280,0.09679012345679012345679012345,560,-2.9880289177739887
281,0.09748271604938271604938271604,562,2.855355445589376
282,0.09817777777777777777777777776,564,0.684909295097516
283,0.09887530864197530864197530861,566,-2.8308724323729066
284,0.09957530864197530864197530867,568,-1.6582040927702415
285,0.1002777777777777777777777778,570,-0.5571178287316674
286,0.1009827160493827160493827161,572,-0.8317997228228429
287,0.1016901234567901234567901235,574,-2.7557006962287343
288,0.1024,576,-0.43639747339858875
289,0.1031123456790123456790123457,578,0.6924974258979875
290,0.1038271604938271604938271605,580,-1.6036617413344283
291,0.1045444444444444444444444444,582,0.6550554900122316
292,0.1052641975308641975308641975,584,5.119964584224956
293,0.1059864197530864197530864198,586,-0.08734145835394835
294,0.1067111111111111111111111111,588,-1.1760041476988754
295,0.1074382716049382716049382716,590,2.9802993006309206
296,0.1081679012345679012345679012,592,2.1765233611005192
297,0.1089,594,4.0736515315396025
298,0.1096345679012345679012345679,596,1.9167190309420368
299,0.1103716049382716049382716049,598,4.6073472131630995
300,0.1111111111111111111111111111,600,0.9261473045010684
301,0.1118530864197530864197530864,602,-1.9426103949463491
302,0.1125975308641975308641975309,604,-1.542020576929265
303,0.1133444444444444444444444445,606,-0.16237502830616485
304,0.1140938271604938271604938272,608,-0.9811148218887494
305,0.1148456790123456790123456790,610,0.8518587461053604
306,0.1156,612,4.560522064470509
307,0.1163567901234567901234567901,614,2.7096276952541083
308,0.1171160493827160493827160494,616,-2.9028287316699717
309,0.1178777777777777777777777778,618,-1.3978716444354047
310,0.1186419753086419753086419753,620,2.365443464424393
311,0.1194086419753086419753086420,622,0.22563807921124887
312,0.1201777777777777777777777778,624,1.7772436856465321
313,0.1209493827160493827160493827,626,-3.425534406622712
314,0.1217234567901234567901234568,628,0.16270620440572875
315,0.1225,630,-2.7151560877466894
316,0.1232790123456790123456790123,632,1.3913403681251815
317,0.1240604938271604938271604938,634,1.1762084466135578
318,0.1248444444444444444444444444,636,-2.6638753736607392
319,0.1256308641975308641975308642,638,0.11694410005234306
320,0.1264197530864197530864197531,640,-0.19009939074883578
321,0.1272111111111111111111111111,642,1.000180270085126
322,0.1280049382716049382716049383,644,-2.2871256114539453
323,0.1288012345679012345679012346,646,-3.0335033885968103
324,0.1296,648,0.7090047515614608
325,0.1304012345679012345679012346,650,0.7201932198334678
326,0.1312049382716049382716049383,652,0.4984431421048639
327,0.1320111111111111111111111111,654,2.0514269013178503
328,0.1328197530864197530864197531,656,3.8136786638181963
329,0.1336308641975308641975308642,658,5.1852020459689285
330,0.1344444444444444444444444445,660,-1.9370683547152732
331,0.1352604938271604938271604938,662,-0.9903997914649361
332,0.1360790123456790123456790124,664,0.45679834456884866
333,0.1369,666,3.4695797925611966
334,0.1377234567901234567901234568,668,4.022217079720224
335,0.1385493827160493827160493827,670,1.0801357289910705
336,0.1393777777777777777777777778,672,-1.7859230250303142
337,0.1402086419753086419753086419,674,0.635267338040565
338,0.1410419753086419753086419753,676,-2.676856016185941
339,0.1418777777777777777777777778,678,-3.106058448432064
340,0.1427160493827160493827160494,680,2.2177111187360032
341,0.1435567901234567901234567901,682,2.5339825344080196
342,0.1444,684,-1.0551650335211062
343,0.1452456790123456790123456790,686,1.2023442381341733
344,0.1460938271604938271604938271,688,-3.626662344409957
345,0.1469444444444444444444444444,690,-3.3278530525269905
346,0.1477975308641975308641975308,692,1.7018112743151428
347,0.1486530864197530864197530865,694,-0.3683875414480863
348,0.1495111111111111111111111111,696,4.277380698746851
349,0.1503716049382716049382716050,698,-0.14644416589309125
350,0.1512345679012345679012345679,700,-2.1290409847933174
351,0.1521,702,-1.0626781492025819
352,0.1529679012345679012345679012,704,1.8438565662533557
353,0.1538382716049382716049382716,706,0.7334077656890914
354,0.1547111111111111111111111111,708,1.7680872087031858
