,Mass (amu),Time (microseconds),Amplitude
0,0,0,0.5976216746288187
1,0.000001234567901234567901234567901,2,0.04615352288320004
2,0.000004938271604938271604938271604,4,-0.9790960965432848
3,0.00001111111111111111111111111111,6,-0.15438518728635192
4,0.00001975308641975308641975308642,8,1.1157242881718046
5,0.00003086419753086419753086419754,10,0.3320015597531145
6,0.00004444444444444444444444444445,12,1.1820632592577267
7,0.00006049382716049382716049382716,14,-0.24186471807084245
8,0.00007901234567901234567901234568,16,1.4519515655091524
9,0.0001,18,-1.5024063807404893
10,0.0001234567901234567901234567901,20,-2.8066030755978524
11,0.0001493827160493827160493827160,22,-1.6970187607063922
12,0.0001777777777777777777777777777,24,4.479961510357046
13,0.0002086419753086419753086419752,26,-1.3791021695509302
14,0.0002419753086419753086419753088,28,4.019178378775549
15,0.0002777777777777777777777777779,30,-0.3110537996000319
16,0.0003160493827160493827160493828,32,-1.4428861460061535
17,0.0003567901234567901234567901235,34,-2.583240249258709
18,0.0004,36,1.2526196241823404
19,0.0004456790123456790123456790123,38,-3.6358452165670427
20,0.0004938271604938271604938271604,40,-1.1230147904526098
21,0.0005444444444444444444444444443,42,0.10290367480865799
22,0.0005975308641975308641975308640,44,-0.9951113572015585
23,0.0006530864197530864197530864200,46,0.22661649857302754
24,0.0007111111111111111111111111113,48,-2.7433783601660786
25,0.0007716049382716049382716049384,50,-0.48347528328352823
26,0.0008345679012345679012345679013,52,0.05548893493261519
27,0.0009,54,1.397531309735459
28,0.0009679012345679012345679012345,56,0.6328804849037403
29,0.001038271604938271604938271605,58,1.8538513045827731
30,0.001111111111111111111111111111,60,-0.9834380317506289
31,0.001186419753086419753086419753,62,1.6612673888925626
32,0.001264197530864197530864197531,64,-0.6991920566271406
33,0.001344444444444444444444444445,66,-1.8758911832560141
34,0.001427160493827160493827160494,68,-0.42215009826022093
35,0.001512345679012345679012345679,70,1.7033827508316581
36,0.0016,72,2.936624356888405
37,0.001690123456790123456790123457,74,2.428741565094328
38,0.001782716049382716049382716049,76,0.3687446471512205
39,0.001877777777777777777777777777,78,2.6357884865819368
40,0.001975308641975308641975308642,80,-0.1307101780630362
41,0.002075308641975308641975308642,82,3.5452193894062187
42,0.002177777777777777777777777778,84,-0.49461752346302024
43,0.002282716049382716049382716050,86,-0.37581953447759336
44,0.002390123456790123456790123457,88,2.89689694968264
45,0.0025,90,-2.030591871284039
46,0.002612345679012345679012345679,92,3.188175413913475
47,0.002727160493827160493827160494,94,1.8763384019251053
48,0.002844444444444444444444444444,96,1.5135262681126105
49,0.002964197530864197530864197530,98,-1.073953595110513
50,0.003086419753086419753086419754,100,-3.4638795317901123
51,0.003211111111111111111111111111,102,1.167044209492632
52,0.003338271604938271604938271605,104,-2.0046570828698886
53,0.003467901234567901234567901235,106,1.9907483634698229
54,0.0036,108,-0.13953215383379644
55,0.003734567901234567901234567901,110,1.6691025478865393
56,0.003871604938271604938271604938,112,2.7407410662985483
57,0.004011111111111111111111111111,114,1.7691014812490033
58,0.004153086419753086419753086419,116,1.284452600532706
59,0.004297530864197530864197530865,118,0.8160310279314041
60,0.004444444444444444444444444445,120,-1.2328590321847128
61,0.004593827160493827160493827161,122,1.9757202312379696
62,0.004745679012345679012345679012,124,-1.2649197428551084
63,0.0049,126,2.099616608916953
64,0.005056790123456790123456790123,128,-3.843479884947459
65,0.005216049382716049382716049382,130,4.740656641575136
66,0.005377777777777777777777777777,132,-4.761319624254518
67,0.005541975308641975308641975308,134,-2.0145794671780743
68,0.005708641975308641975308641976,136,-0.17619391066627269
69,0.005877777777777777777777777778,138,0.3294556895334073
70,0.006049382716049382716049382716,140,1.2534290643428943
71,0.006223456790123456790123456790,142,-2.18221637348937
72,0.0064,144,-3.151795914585337
73,0.006579012345679012345679012345,146,1.9869207316023239
74,0.006760493827160493827160493827,148,1.2238929516691188
75,0.006944444444444444444444444444,150,-5.592384855651999
76,0.007130864197530864197530864197,152,0.6682163463883884
77,0.007319753086419753086419753087,154,-0.8783865627013868
78,0.007511111111111111111111111112,156,-0.4913872213645367
79,0.007704938271604938271604938272,158,-0.679901769782949
80,0.007901234567901234567901234568,160,-0.6283716326067014
81,0.0081,162,4.920547631607587
82,0.008301234567901234567901234568,164,2.353072937570899
83,0.008504938271604938271604938271,166,-1.7635376523439434
84,0.008711111111111111111111111110,168,0.7566496027316636
85,0.008919753086419753086419753086,170,0.4716309212256446
86,0.009130864197530864197530864198,172,-1.4911848415716749
87,0.009344444444444444444444444445,174,-3.4711749217702854
88,0.009560493827160493827160493828,176,-2.095810915737178
89,0.009779012345679012345679012346,178,2.9846164734864495
90,0.01,180,-3.182816008920381
91,0.01022345679012345679012345679,182,1.8964738777285943
92,0.01044938271604938271604938271,184,-0.781470430342959
93,0.01067777777777777777777777777,186,-0.16561278971095508
94,0.01090864197530864197530864197,188,2.067254499360105
95,0.01114197530864197530864197532,190,1.7291889716309528
96,0.01137777777777777777777777778,192,3.4426390661869117
97,0.01161604938271604938271604939,194,2.4707861959414896
98,0.01185679012345679012345679013,196,0.3207699200029497
99,0.0121,198,1.9311841461604655
100,0.01234567901234567901234567901,200,2.2682904580763728
101,0.01259382716049382716049382716,202,0.7531822910366577
102,0.01284444444444444444444444444,204,-3.613725856371063
103,0.01309753086419753086419753085,206,1.3474242875848013
104,0.01335308641975308641975308643,208,3.239071796705695
105,0.01361111111111111111111111112,210,0.28423033827055155
106,0.01387160493827160493827160494,212,3.1434486541843674
107,0.01413456790123456790123456790,214,-1.5282703966936875
108,0.0144,216,0.8934568623578101
109,0.01466790123456790123456790123,218,-2.1719699789500067
110,0.01493827160493827160493827160,220,4.298654221575821
111,0.01521111111111111111111111110,222,6.298678704133574
112,0.01548641975308641975308641974,224,-0.829007767862875
113,0.01576419753086419753086419754,226,3.2329122452988055
114,0.01604444444444444444444444445,228,-0.3786760496975376
115,0.01632716049382716049382716050,230,-0.8932883141211855
116,0.01661234567901234567901234568,232,1.0488169015271365
117,0.0169,234,-0.3021915478328032
118,0.01719012345679012345679012345,236,4.329777988361185
119,0.01748271604938271604938271604,238,-0.15958104814442037
120,0.01777777777777777777777777777,240,-1.243772519771149
121,0.01807530864197530864197530863,242,1.298427547257399
122,0.01837530864197530864197530865,244,-3.412349777026417
123,0.01867777777777777777777777779,246,-0.3803109833562657
124,0.01898271604938271604938271606,248,3.9523977862972504
125,0.01929012345679012345679012346,250,-6.052967648884495
126,0.0196,252,2.586095592460757
127,0.01991234567901234567901234568,254,-3.9324424609185464
128,0.02022716049382716049382716049,256,-2.4481429238831676
129,0.02054444444444444444444444443,258,2.038798729336454
130,0.02086419753086419753086419752,260,-2.187829418316522
131,0.02118641975308641975308641977,262,-4.0249716839426934
132,0.02151111111111111111111111112,264,5.865499290857028
133,0.02183827160493827160493827161,266,-3.2495103703912815
134,0.02216790123456790123456790124,268,-1.3396335696533854
135,0.0225,270,-0.1786463225774592
136,0.02283456790123456790123456790,272,-0.14876338864995692
137,0.02317160493827160493827160493,274,0.5225563992985505
138,0.02351111111111111111111111110,276,0.5013070256275962
139,0.02385308641975308641975308641,278,1.5148430563130437
140,0.02419753086419753086419753088,280,3.5020067703907825
141,0.02454444444444444444444444445,282,-2.020016200731073
142,0.02489382716049382716049382717,284,-0.8374893339536708
143,0.02524567901234567901234567902,286,0.860041118077844
144,0.0256,288,0.29254011237654154
145,0.02595679012345679012345679012,290,3.9619519636736893
146,0.02631604938271604938271604938,292,0.31409246575452926
147,0.02667777777777777777777777777,294,-0.43382815983520395
148,0.02704197530864197530864197529,296,-0.8028434201340852
149,0.02740864197530864197530864199,298,-0.9377290706857211
150,0.02777777777777777777777777779,300,-1.670141799043765
151,0.02814938271604938271604938272,302,-1.2410889260902718
152,0.02852345679012345679012345679,304,0.2010882719879543
153,0.0289,306,-2.702166307489836
154,0.02927901234567901234567901234,308,-0.9310683158001056
155,0.02966049382716049382716049382,310,-1.146528295822948
156,0.03004444444444444444444444443,312,-2.167914300290156
157,0.03043086419753086419753086418,314,-0.9420513972694387
158,0.03081975308641975308641975310,316,0.31877017748596886
159,0.03121111111111111111111111112,318,1.8604335277688058
160,0.03160493827160493827160493828,320,-1.957796196736252
161,0.03200123456790123456790123457,322,-4.76152829918658
162,0.0324,324,3.858569499533918
163,0.03280123456790123456790123456,326,-2.21723595671679
164,0.03320493827160493827160493826,328,0.6352276624581247
165,0.03361111111111111111111111110,330,-2.7841028268412815
166,0.03401975308641975308641975307,332,-2.9060973540595594
167,0.03443086419753086419753086421,334,4.596650286651231
168,0.03484444444444444444444444446,336,-4.476200303538434
169,0.03526049382716049382716049384,338,0.5154200152303405
170,0.03567901234567901234567901235,340,1.2666368468513038
171,0.0361,342,-0.252004929656254
172,0.03652345679012345679012345679,344,0.5490213410247996
173,0.03694938271604938271604938271,346,4.626675784252277
174,0.03737777777777777777777777776,348,3.5900890456876873
175,0.03780864197530864197530864196,350,0.6019347061856168
176,0.03824197530864197530864197533,352,-2.387906959506675
177,0.03867777777777777777777777779,354,0.09085252964480013
178,0.03911604938271604938271604939,356,-2.966347304887004
179,0.03955679012345679012345679013,358,-0.004315788730917811
180,0.04,360,-2.139734018701823
181,0.04044567901234567901234567901,362,-2.7616357169290664
182,0.04089382716049382716049382715,364,-1.1295010503025698
183,0.04134444444444444444444444443,366,1.1609014584170352
184,0.04179753086419753086419753085,368,1.9046529542289445
185,0.04225308641975308641975308644,370,-5.779594119216296
186,0.04271111111111111111111111112,372,-2.083549300486741
187,0.04317160493827160493827160495,374,4.892308266866883
188,0.04363456790123456790123456791,376,0.22153424589402332
189,0.0441,378,1.0680585047271187
190,0.04456790123456790123456790123,380,0.24981888098059465
191,0.04503827160493827160493827160,382,-1.1372199094819455
192,0.04551111111111111111111111110,384,1.6477750486756995
193,0.04598641975308641975308641973,386,-0.25818690756085544
194,0.04646419753086419753086419755,388,3.1143252630621947
195,0.04694444444444444444444444446,390,1.9757202312379651
196,0.04742716049382716049382716050,392,6.221076023277364
197,0.04791234567901234567901234568,394,0.03197721948890197
198,0.0484,396,-0.19017621758885286
199,0.04889012345679012345679012345,398,-1.7045387010988187
200,0.04938271604938271604938271604,400,0.0028286690243506814
201,0.04987777777777777777777777776,402,2.1039538273957517
202,0.05037530864197530864197530862,404,0.09655774223378857
203,0.05087530864197530864197530866,406,-3.8035213985123004
204,0.05137777777777777777777777779,408,-1.4106781188065873
205,0.05188271604938271604938271606,410,3.7214798616739877
206,0.05239012345679012345679012346,412,-1.2916412865737252
207,0.0529,414,0.38705088710509583
208,0.05341234567901234567901234567,416,-0.22334245496896749
209,0.05392716049382716049382716048,418,2.8240338162904397
210,0.05444444444444444444444444443,420,1.250606333192318
211,0.05496419753086419753086419751,422,-1.9793094853376385
212,0.05548641975308641975308641977,424,3.877389792995551
213,0.05601111111111111111111111113,426,4.215387603353898
214,0.05653827160493827160493827162,428,-0.7875348640408576
215,0.05706790123456790123456790124,430,-0.6008605417706897
216,0.0576,432,-0.6852509583855385
217,0.05813456790123456790123456790,434,2.5485216554716006
218,0.05867160493827160493827160493,436,-0.7399565297578463
219,0.05921111111111111111111111109,438,-0.15386627198452033
220,0.05975308641975308641975308640,440,1.6642559360072375
221,0.06029753086419753086419753089,442,0.8041180875331815
222,0.06084444444444444444444444446,444,5.517286293673455
223,0.06139382716049382716049382717,446,0.2557421920099438
224,0.06194567901234567901234567902,448,-1.452305337668268
225,0.0625,450,-0.9279438058549087
226,0.06305679012345679012345679012,452,-0.2161813065361973
227,0.06361604938271604938271604937,454,0.6991519612353447
228,0.06417777777777777777777777776,456,6.0380228865548435
229,0.06474197530864197530864197529,458,0.38218592890773156
230,0.06530864197530864197530864200,460,1.69093557560185
231,0.06587777777777777777777777779,462,-0.39466768939389557
232,0.06644938271604938271604938273,464,0.10946559928284491
233,0.06702345679012345679012345680,466,0.3676801721235332
234,0.0676,468,-2.656267436070887
235,0.06817901234567901234567901234,470,-1.7165879307758383
236,0.06876049382716049382716049382,472,-2.691616119944025
237,0.06934444444444444444444444443,474,-1.977574835614614
238,0.06993086419753086419753086417,476,-0.5036560174390149
239,0.07051975308641975308641975311,478,1.1518447528683198
240,0.07111111111111111111111111113,480,-2.286649571990472
241,0.07170493827160493827160493828,482,0.11852665676797888
242,0.07230123456790123456790123457,484,-1.8076642708894193
243,0.0729,486,-3.7588215189100063
244,0.07350123456790123456790123456,488,4.643218701914656
245,0.07410493827160493827160493826,490,-2.4267195724427904
246,0.07471111111111111111111111109,492,1.7298502826267046
247,0.07531975308641975308641975306,494,-0.5498032751945929
248,0.07593086419753086419753086422,496,0.538677463267095
249,0.07654444444444444444444444446,498,-2.1961071106933203
250,0.07716049382716049382716049384,500,4.309810509964668
251,0.07777901234567901234567901235,502,1.9932478510004605
252,0.0784,504,-0.414702375306793
253,0.07902345679012345679012345678,506,0.28247367422575903
254,0.07964938271604938271604938270,508,0.9306743621826458
255,0.08027777777777777777777777776,510,2.3354988355555806
256,0.08090864197530864197530864195,512,2.076734064925403
257,0.08154197530864197530864197533,514,2.1583722541386003
258,0.08217777777777777777777777780,516,-0.504908464653748
259,0.08281604938271604938271604940,518,-1.0476719897179818
260,0.08345679012345679012345679013,520,-0.8197554490696304
261,0.0841,522,-2.123359808034574
262,0.08474567901234567901234567901,524,-5.109926408769279
263,0.08539382716049382716049382715,526,-1.1996573260886603
264,0.08604444444444444444444444442,528,-1.969738364378178
265,0.08669753086419753086419753084,530,0.8398609244292211
266,0.08735308641975308641975308645,532,-1.7328656112442558
267,0.08801111111111111111111111113,534,2.1710917378036276
268,0.08867160493827160493827160495,536,0.12768612695771805
269,0.08933456790123456790123456791,538,-2.3980870952890943
270,0.09,540,4.257190545568663
271,0.09066790123456790123456790123,542,-0.227898904658307
272,0.09133827160493827160493827159,544,-2.4717892001093054
273,0.09201111111111111111111111109,546,3.624813156563328
274,0.09268641975308641975308641973,548,3.697936655003753
275,0.09336419753086419753086419756,550,-3.0082098479877555
276,0.09404444444444444444444444446,552,1.369281617491624
277,0.09472716049382716049382716051,554,-0.8759361343922533
278,0.09541234567901234567901234569,556,0.9643354162673528
279,0.0961,558,4.0142073620791825
280,0.09679012345679012345679012345,560,1.4263489931467281
281,0.09748271604938271604938271604,562,-0.939008022074446
282,0.09817777777777777777777777776,564,2.590126630627591
283,0.09887530864197530864197530861,566,1.5716071500061657
284,0.09957530864197530864197530867,568,-0.6815501383062502
285,0.1002777777777777777777777778,570,1.6989975070709904
286,0.1009827160493827160493827161,572,0.7481907943398679
287,0.1016901234567901234567901235,574,-1.6915286382150567
288,0.1024,576,2.082728577556298
289,0.1031123456790123456790123457,578,3.0165323144773435
290,0.1038271604938271604938271605,580,1.5013539292467362
291,0.1045444444444444444444444444,582,0.32261678531879695
292,0.1052641975308641975308641975,584,-1.6878204899604805
293,0.1059864197530864197530864198,586,2.542217117041456
294,0.1067111111111111111111111111,588,-1.0683334381984115
295,0.1074382716049382716049382716,590,-0.28997406651161867
296,0.1081679012345679012345679012,592,0.31869953672870477
297,0.1089,594,-0.7029518950532564
298,0.1096345679012345679012345679,596,-2.103196789685465
299,0.1103716049382716049382716049,598,0.4397877392279277
300,0.1111111111111111111111111111,600,0.12709835241670328
301,0.1118530864197530864197530864,602,0.8565755231141775
302,0.1125975308641975308641975309,604,-0.6061966624847348
303,0.1133444444444444444444444445,606,4.9582043101190845
304,0.1140938271604938271604938272,608,2.4669878992924446
305,0.1148456790123456790123456790,610,4.710134152190272
306,0.1156,612,-2.161108390052859
307,0.1163567901234567901234567901,614,-4.75972261834505
308,0.1171160493827160493827160494,616,0.8096706646864124
309,0.1178777777777777777777777778,618,1.044654228052399
310,0.1186419753086419753086419753,620,-1.41702054684522
311,0.1194086419753086419753086420,622,2.9984036780805345
312,0.1201777777777777777777777778,624,1.83232100590306
313,0.1209493827160493827160493827,626,1.7300760476630672
314,0.1217234567901234567901234568,628,-0.12602668226217287
315,0.1225,630,-1.8333748555612661
316,0.1232790123456790123456790123,632,0.5486743415519768
317,0.1240604938271604938271604938,634,-2.967306996240125
318,0.1248444444444444444444444444,636,0.36519828714126973
319,0.1256308641975308641975308642,638,-0.4944332125410938
320,0.1264197530864197530864197531,640,-3.1200719273795414
321,0.1272111111111111111111111111,642,0.0765404599401804
322,0.1280049382716049382716049383,644,-4.325486301635926
323,0.1288012345679012345679012346,646,-3.817096561575552
324,0.1296,648,2.808706068736963
325,0.1304012345679012345679012346,650,3.243688264576956
326,0.1312049382716049382716049383,652,-0.7768766209409095
327,0.1320111111111111111111111111,654,-0.19267128941960074
328,0.1328197530864197530864197531,656,-1.8299013485689843
329,0.1336308641975308641975308642,658,-3.1443945874613313
330,0.1344444444444444444444444445,660,-0.010367789177884114
331,0.1352604938271604938271604938,662,4.884954250731672
332,0.1360790123456790123456790124,664,2.60344278332348
333,0.1369,666,-1.3850516221074558
334,0.1377234567901234567901234568,668,0.15674452022195084
335,0.1385493827160493827160493827,670,1.0969345638003591
336,0.1393777777777777777777777778,672,-1.5696789754152534
337,0.1402086419753086419753086419,674,3.954259029579077
338,0.1410419753086419753086419753,676,1.8785928669457854
339,0.1418777777777777777777777778,678,-3.0734349144112363
340,0.1427160493827160493827160494,680,2.5483480837607098
341,0.1435567901234567901234567901,682,2.692650276382343
342,0.1444,684,-0.0594550764760511
343,0.1452456790123456790123456790,686,0.44489407381993984
344,0.1460938271604938271604938271,688,1.2676501997983076
345,0.1469444444444444444444444444,690,-1.464420280358181
346,0.1477975308641975308641975308,692,1.7422015977266012
347,0.1486530864197530864197530865,694,-1.4163132407807086
348,0.1495111111111111111111111111,696,-2.1509390185867585
349,0.1503716049382716049382716050,698,2.2495131671043547
350,0.1512345679012345679012345679,700,-2.467371492827711
351,0.1521,702,1.8911217269310712
352,0.1529679012345679012345679012,704,-2.2125579871221075
353,0.1538382716049382716049382716,706,0.6993808972034076
354,0.1547111111111111111111111111,708,-3.6335118384434217
