,Mass (amu),Time (microseconds),Amplitude
0,0,0,-2.481820158577299
1,0.000001234567901234567901234567901,2,1.613289669703725
2,0.000004938271604938271604938271604,4,-1.1039505494018245
3,0.00001111111111111111111111111111,6,0.2707986675769251
4,0.00001975308641975308641975308642,8,0.7195388273140652
5,0.00003086419753086419753086419754,10,-2.4930625671760036
6,0.00004444444444444444444444444445,12,-1.0987080360987953
7,0.00006049382716049382716049382716,14,-3.6304846517496725
8,0.00007901234567901234567901234568,16,0.9206184880704812
9,0.0001,18,1.6357441762766078
10,0.0001234567901234567901234567901,20,0.7718401199552813
11,0.0001493827160493827160493827160,22,2.9055763676618764
12,0.0001777777777777777777777777777,24,2.2741389205834226
13,0.0002086419753086419753086419752,26,-0.44083478254660957
14,0.0002419753086419753086419753088,28,0.06256465733770868
15,0.0002777777777777777777777777779,30,2.592701603036236
16,0.0003160493827160493827160493828,32,-2.0593240410530917
17,0.0003567901234567901234567901235,34,1.062100863941454
18,0.0004,36,0.6932458942885363
19,0.0004456790123456790123456790123,38,-4.021331949666917
20,0.0004938271604938271604938271604,40,0.23511522618187475
21,0.0005444444444444444444444444443,42,1.8559322142056576
22,0.0005975308641975308641975308640,44,1.3971440932903507
23,0.0006530864197530864197530864200,46,2.5419787731936383
24,0.0007111111111111111111111111113,48,-0.9526321554059376
25,0.0007716049382716049382716049384,50,0.758281936334172
26,0.0008345679012345679012345679013,52,0.5391015149501288
27,0.0009,54,-5.297127273545186
28,0.0009679012345679012345679012345,56,2.780127641415078
29,0.001038271604938271604938271605,58,1.384468223377097
30,0.001111111111111111111111111111,60,-0.029458395965473262
31,0.001186419753086419753086419753,62,-2.437448037575179
32,0.001264197530864197530864197531,64,4.89630064107675
33,0.001344444444444444444444444445,66,1.5865006913409796
34,0.001427160493827160493827160494,68,-0.6583463822778709
35,0.001512345679012345679012345679,70,2.3499049478595193
36,0.0016,72,0.7282137812528706
37,0.001690123456790123456790123457,74,-2.043056699957277
38,0.001782716049382716049382716049,76,0.10915073291264066
39,0.001877777777777777777777777777,78,0.7865409779979909
40,0.001975308641975308641975308642,80,1.4059091322875332
41,0.002075308641975308641975308642,82,0.853380137204179
42,0.002177777777777777777777777778,84,5.077467695381507
43,0.002282716049382716049382716050,86,-2.2887528235460093
44,0.002390123456790123456790123457,88,0.8560286068285458
45,0.0025,90,0.6079682290058569
46,0.002612345679012345679012345679,92,-3.3786994188007657
47,0.002727160493827160493827160494,94,-1.2456790197989709
48,0.002844444444444444444444444444,96,3.363297816109307
49,0.002964197530864197530864197530,98,0.585066173717399
50,0.003086419753086419753086419754,100,-2.2156872695320824
51,0.003211111111111111111111111111,102,-0.2972360397092657
52,0.003338271604938271604938271605,104,2.3312871140585556
53,0.003467901234567901234567901235,106,-1.0816453211372192
54,0.0036,108,3.2066303250633177
55,0.003734567901234567901234567901,110,-0.8312110613846632
56,0.003871604938271604938271604938,112,-0.6773482450744415
57,0.004011111111111111111111111111,114,6.253983278120342
58,0.004153086419753086419753086419,116,2.014674708883185
59,0.004297530864197530864197530865,118,1.2372511714643235
60,0.004444444444444444444444444445,120,1.631465873650235
61,0.004593827160493827160493827161,122,1.2569947070967422
62,0.004745679012345679012345679012,124,-0.19606458009415198
63,0.0049,126,0.6787319775862737
64,0.005056790123456790123456790123,128,3.923447252671868
65,0.005216049382716049382716049382,130,-1.0761445916118064
66,0.005377777777777777777777777777,132,-2.3178883435238657
67,0.005541975308641975308641975308,134,-3.0190898985975356
68,0.005708641975308641975308641976,136,2.3640484043961587
69,0.005877777777777777777777777778,138,-1.3778945651561048
70,0.006049382716049382716049382716,140,-0.0383670189606153
71,0.006223456790123456790123456790,142,-0.2325810473058573
72,0.0064,144,1.3684514383967146
73,0.006579012345679012345679012345,146,1.1396215379239338
74,0.006760493827160493827160493827,148,-0.8685044623562905
75,0.006944444444444444444444444444,150,3.2994362226563108
76,0.007130864197530864197530864197,152,-3.950681874812724
77,0.007319753086419753086419753087,154,1.6448107844488027
78,0.007511111111111111111111111112,156,2.374465748293885
79,0.007704938271604938271604938272,158,-1.4044115253024105
80,0.007901234567901234567901234568,160,1.110786256615455
81,0.0081,162,1.4001376430066166
82,0.008301234567901234567901234568,164,-0.012888070528435781
83,0.008504938271604938271604938271,166,1.2955281590041459
84,0.008711111111111111111111111110,168,-4.623575489743623
85,0.008919753086419753086419753086,170,3.429761407329919
86,0.009130864197530864197530864198,172,-1.9298884333436408
87,0.009344444444444444444444444445,174,5.160193616856011
88,0.009560493827160493827160493828,176,2.5976488769027
89,0.009779012345679012345679012346,178,1.7362609051669031
90,0.01,180,5.160193616856011
91,0.01022345679012345679012345679,182,-1.8446803265121603
92,0.01044938271604938271604938271,184,1.6284069178083682
93,0.01067777777777777777777777777,186,-2.660633172920648
94,0.01090864197530864197530864197,188,-2.7486910093030863
95,0.01114197530864197530864197532,190,3.134369396154903
96,0.01137777777777777777777777778,192,-1.7208168046225512
97,0.01161604938271604938271604939,194,-1.0343609322912461
98,0.01185679012345679012345679013,196,-2.0664805853058974
99,0.0121,198,3.702713004480344
100,0.01234567901234567901234567901,200,-1.2696906997771353
101,0.01259382716049382716049382716,202,-0.4504633116447438
102,0.01284444444444444444444444444,204,2.593131920821029
103,0.01309753086419753086419753085,206,-0.6903171739258135
104,0.01335308641975308641975308643,208,-4.026814331287502
105,0.01361111111111111111111111112,210,-1.3695604645006791
106,0.01387160493827160493827160494,212,-3.2597731904255625
107,0.01413456790123456790123456790,214,-1.150282502595568
108,0.0144,216,-1.581706381266329
109,0.01466790123456790123456790123,218,5.34215952123551
110,0.01493827160493827160493827160,220,-2.2557265426685427
111,0.01521111111111111111111111110,222,4.305324538927488
112,0.01548641975308641975308641974,224,-0.6830627084904469
113,0.01576419753086419753086419754,226,2.810385217154639
114,0.01604444444444444444444444445,228,1.3561058360689457
115,0.01632716049382716049382716050,230,3.1831963902528155
116,0.01661234567901234567901234568,232,-0.567879583470261
117,0.0169,234,-0.8230917194862049
118,0.01719012345679012345679012345,236,0.43101108216560696
119,0.01748271604938271604938271604,238,0.6130116424021318
120,0.01777777777777777777777777777,240,-2.491017495076934
121,0.01807530864197530864197530863,242,1.3305225945575898
122,0.01837530864197530864197530865,244,-3.4390531545991614
123,0.01867777777777777777777777779,246,-2.0179921715099765
124,0.01898271604938271604938271606,248,-0.22788291717354647
125,0.01929012345679012345679012346,250,-6.668404445723409
126,0.0196,252,-3.25344689642768
127,0.01991234567901234567901234568,254,-1.2780508447714516
128,0.02022716049382716049382716049,256,-0.2929247421197522
129,0.02054444444444444444444444443,258,-0.7837186733122578
130,0.02086419753086419753086419752,260,-0.5878846358013551
131,0.02118641975308641975308641977,262,1.164778523892016
132,0.02151111111111111111111111112,264,-2.3428406733457456
133,0.02183827160493827160493827161,266,-1.1745787361624123
134,0.02216790123456790123456790124,268,0.359473485903341
135,0.0225,270,2.713236228335842
136,0.02283456790123456790123456790,272,-3.241285970832526
137,0.02317160493827160493827160493,274,0.06195980859765264
138,0.02351111111111111111111111110,276,-1.5321755776626544
139,0.02385308641975308641975308641,278,-2.1904740107419816
140,0.02419753086419753086419753088,280,-1.0531543882178456
141,0.02454444444444444444444444445,282,3.0203488619391106
142,0.02489382716049382716049382717,284,-0.010100424151686091
143,0.02524567901234567901234567902,286,0.9130209296605897
144,0.0256,288,0.5848064457342366
145,0.02595679012345679012345679012,290,-2.1041989829163343
146,0.02631604938271604938271604938,292,0.6656141155669215
147,0.02667777777777777777777777777,294,2.0989425587314208
148,0.02704197530864197530864197529,296,-1.7419595436235495
149,0.02740864197530864197530864199,298,-0.5769335756307089
150,0.02777777777777777777777777779,300,-3.6556124829839343
151,0.02814938271604938271604938272,302,-0.332041598737654
152,0.02852345679012345679012345679,304,0.26219399246577474
153,0.0289,306,3.9189981511848173
154,0.02927901234567901234567901234,308,-0.7369523352363893
155,0.02966049382716049382716049382,310,2.9921060568378124
156,0.03004444444444444444444444443,312,2.067288167874809
157,0.03043086419753086419753086418,314,5.18548970113918
158,0.03081975308641975308641975310,316,0.24825532353675164
159,0.03121111111111111111111111112,318,-1.0143535401532353
160,0.03160493827160493827160493828,320,2.3220074152064076
161,0.03200123456790123456790123457,322,-0.7504622469917198
162,0.0324,324,-2.8151324793475734
163,0.03280123456790123456790123456,326,0.3970676675630034
164,0.03320493827160493827160493826,328,-1.548152643543361
165,0.03361111111111111111111111110,330,1.7614815283800822
166,0.03401975308641975308641975307,332,2.8718338876054728
167,0.03443086419753086419753086421,334,6.174250939902138
168,0.03484444444444444444444444446,336,-1.0710745270458628
169,0.03526049382716049382716049384,338,0.374587746133557
170,0.03567901234567901234567901235,340,1.7301984610795034
171,0.0361,342,-3.9869624073504344
172,0.03652345679012345679012345679,344,-0.6511601946253249
173,0.03694938271604938271604938271,346,2.079897285808542
174,0.03737777777777777777777777776,348,-0.3808453552725173
175,0.03780864197530864197530864196,350,-2.3091916480042327
176,0.03824197530864197530864197533,352,2.5963148403132323
177,0.03867777777777777777777777779,354,-1.4429445834878822
178,0.03911604938271604938271604939,356,-0.8201833415961243
179,0.03955679012345679012345679013,358,-1.0321923824062824
180,0.04,360,2.1816366086047547
181,0.04044567901234567901234567901,362,1.9096320886169513
182,0.04089382716049382716049382715,364,1.5850983358614905
183,0.04134444444444444444444444443,366,2.949049522294406
184,0.04179753086419753086419753085,368,-1.6538936242597135
185,0.04225308641975308641975308644,370,-1.0884274740072246
186,0.04271111111111111111111111112,372,-0.6506993666038817
187,0.04317160493827160493827160495,374,1.452291163333068
188,0.04363456790123456790123456791,376,-2.366637457292948
189,0.0441,378,-0.22186043355146803
190,0.04456790123456790123456790123,380,-0.25246907138073554
191,0.04503827160493827160493827160,382,-1.2709776262727706
192,0.04551111111111111111111111110,384,-1.3960877869346744
193,0.04598641975308641975308641973,386,1.2352713254875844
194,0.04646419753086419753086419755,388,1.3527848463825123
195,0.04694444444444444444444444446,390,-2.636522989088602
196,0.04742716049382716049382716050,392,-0.04952464267010761
197,0.04791234567901234567901234568,394,2.65840776920106
198,0.0484,396,-2.1901574500080776
199,0.04889012345679012345679012345,398,-0.6519104948761255
200,0.04938271604938271604938271604,400,0.4972138478475324
201,0.04987777777777777777777777776,402,-0.9921022177672725
202,0.05037530864197530864197530862,404,-0.11508718989341965
203,0.05087530864197530864197530866,406,-1.0616270974565436
204,0.05137777777777777777777777779,408,-3.1246247136861522
205,0.05188271604938271604938271606,410,-2.6515291972836303
206,0.05239012345679012345679012346,412,0.9531259693819967
207,0.0529,414,0.9777045781219668
208,0.05341234567901234567901234567,416,-0.6116357673700126
209,0.05392716049382716049382716048,418,1.1132568941993808
210,0.05444444444444444444444444443,420,-3.3628998833955777
211,0.05496419753086419753086419751,422,-4.160374296836627
212,0.05548641975308641975308641977,424,-1.7854713094434658
213,0.05601111111111111111111111113,426,2.968325387725808
214,0.05653827160493827160493827162,428,-2.5212654697422354
215,0.05706790123456790123456790124,430,0.05268143668358067
216,0.0576,432,-1.0088059907288567
217,0.05813456790123456790123456790,434,0.07551947727098945
218,0.05867160493827160493827160493,436,-3.5582767310231755
219,0.05921111111111111111111111109,438,1.2450750687627383
220,0.05975308641975308641975308640,440,4.759776891238719
221,0.06029753086419753086419753089,442,-4.2074806760839785
222,0.06084444444444444444444444446,444,-1.8004357721529105
223,0.06139382716049382716049382717,446,-3.792657367808898
224,0.06194567901234567901234567902,448,-2.3053107918066957
225,0.0625,450,-2.586487455068269
226,0.06305679012345679012345679012,452,-0.05870010526870381
227,0.06361604938271604938271604937,454,0.09677111193592106
228,0.06417777777777777777777777776,456,-2.323961688767889
229,0.06474197530864197530864197529,458,4.081326962263873
230,0.06530864197530864197530864200,460,-1.6084568252338571
231,0.06587777777777777777777777779,462,2.794592342204242
232,0.06644938271604938271604938273,464,1.2462329400599703
233,0.06702345679012345679012345680,466,1.3258886180438647
234,0.0676,468,1.1103604080805667
235,0.06817901234567901234567901234,470,2.896145799024324
236,0.06876049382716049382716049382,472,1.886516974813222
237,0.06934444444444444444444444443,474,2.807652511897024
238,0.06993086419753086419753086417,476,-0.4891898066106766
239,0.07051975308641975308641975311,478,-3.1153982233992608
240,0.07111111111111111111111111113,480,1.7202052251024353
241,0.07170493827160493827160493828,482,1.5624086799145633
242,0.07230123456790123456790123457,484,0.16628767681816153
243,0.0729,486,-2.6435089839413517
244,0.07350123456790123456790123456,488,3.8234107951869167
245,0.07410493827160493827160493826,490,1.4603774965372618
246,0.07471111111111111111111111109,492,-4.2172877903393635
247,0.07531975308641975308641975306,494,-0.5978665965779797
248,0.07593086419753086419753086422,496,-0.24507327048425273
249,0.07654444444444444444444444446,498,0.02688489764851134
250,0.07716049382716049382716049384,500,1.4940814652174408
251,0.07777901234567901234567901235,502,3.6393275784768404
252,0.0784,504,0.4489721487670269
253,0.07902345679012345679012345678,506,1.863390301137289
254,0.07964938271604938271604938270,508,-3.315993358103272
255,0.08027777777777777777777777776,510,1.3879949094714692
256,0.08090864197530864197530864195,512,0.2999304515243767
257,0.08154197530864197530864197533,514,0.519836625317237
258,0.08217777777777777777777777780,516,-1.2872492886892797
259,0.08281604938271604938271604940,518,-3.2952199909790147
260,0.08345679012345679012345679013,520,1.352186431250424
261,0.0841,522,2.8365386632044833
262,0.08474567901234567901234567901,524,-1.5923475776548828
263,0.08539382716049382716049382715,526,1.8922700172125178
264,0.08604444444444444444444444442,528,0.6127328618107921
265,0.08669753086419753086419753084,530,5.137164908312293
266,0.08735308641975308641975308645,532,-2.5365280776555497
267,0.08801111111111111111111111113,534,0.3064708415456839
268,0.08867160493827160493827160495,536,2.889601045552294
269,0.08933456790123456790123456791,538,-0.47913886954336915
270,0.09,540,-1.2026032125758177
271,0.09066790123456790123456790123,542,1.9138532892422264
272,0.09133827160493827160493827159,544,2.4601120648002013
273,0.09201111111111111111111111109,546,0.4552439609285977
274,0.09268641975308641975308641973,548,3.876496482587425
275,0.09336419753086419753086419756,550,-3.293441757094282
276,0.09404444444444444444444444446,552,0.5519652842172702
277,0.09472716049382716049382716051,554,1.0179973457663225
278,0.09541234567901234567901234569,556,0.7365603482854336
279,0.0961,558,1.4935248890513166
280,0.09679012345679012345679012345,560,-2.6312595572442268
281,0.09748271604938271604938271604,562,-0.5535334593370203
282,0.09817777777777777777777777776,564,3.1345568005411515
283,0.09887530864197530864197530861,566,3.190931805408795
284,0.09957530864197530864197530867,568,-1.4906884716575568
285,0.1002777777777777777777777778,570,-0.6662490888636694
286,0.1009827160493827160493827161,572,-0.7099883914898155
287,0.1016901234567901234567901235,574,0.4742473344457717
288,0.1024,576,-1.512453911694907
289,0.1031123456790123456790123457,578,-1.197745707382377
290,0.1038271604938271604938271605,580,3.6616036537317322
291,0.1045444444444444444444444444,582,0.14887847703192178
292,0.1052641975308641975308641975,584,-2.2244338492758717
293,0.1059864197530864197530864198,586,0.11612648556426289
294,0.1067111111111111111111111111,588,0.4630832705330779
295,0.1074382716049382716049382716,590,6.092178214082707
296,0.1081679012345679012345679012,592,1.1593683560353587
297,0.1089,594,-4.633562765078914
298,0.1096345679012345679012345679,596,-0.06672016179016693
299,0.1103716049382716049382716049,598,1.1314086854967194
300,0.1111111111111111111111111111,600,-1.9331309576881366
301,0.1118530864197530864197530864,602,4.776197301314886
302,0.1125975308641975308641975309,604,2.0498745343325213
303,0.1133444444444444444444444445,606,1.6582714343057694
304,0.1140938271604938271604938272,608,-5.509893483294314
305,0.1148456790123456790123456790,610,-0.45793214288444023
306,0.1156,612,0.8623878957881133
307,0.1163567901234567901234567901,614,3.7860343113186374
308,0.1171160493827160493827160494,616,4.023522673756194
309,0.1178777777777777777777777778,618,2.7160280900578937
310,0.1186419753086419753086419753,620,0.28917530195540997
311,0.1194086419753086419753086420,622,2.711358280856448
312,0.1201777777777777777777777778,624,0.6578419385389891
313,0.1209493827160493827160493827,626,4.0475256162064674
314,0.1217234567901234567901234568,628,1.2307258378997872
315,0.1225,630,-0.7879635935006519
316,0.1232790123456790123456790123,632,-1.2813737310031252
317,0.1240604938271604938271604938,634,-3.579527613458716
318,0.1248444444444444444444444444,636,-1.8936459479727252
319,0.1256308641975308641975308642,638,3.7251059317380943
320,0.1264197530864197530864197531,640,3.3267944775144205
321,0.1272111111111111111111111111,642,-0.9568209136464202
322,0.1280049382716049382716049383,644,3.458277543672518
323,0.1288012345679012345679012346,646,1.208158788360046
324,0.1296,648,0.43632626838271343
325,0.1304012345679012345679012346,650,-1.2547744991213152
326,0.1312049382716049382716049383,652,0.1807688252399378
327,0.1320111111111111111111111111,654,0.5805453302497948
328,0.1328197530864197530864197531,656,1.4095419025276625
329,0.1336308641975308641975308642,658,-0.4622247549417313
330,0.1344444444444444444444444445,660,1.1550771547643743
331,0.1352604938271604938271604938,662,0.4638647051009119
332,0.1360790123456790123456790124,664,-1.7990484838511862
333,0.1369,666,-0.031675348771545944
334,0.1377234567901234567901234568,668,-3.2604783271407265
335,0.1385493827160493827160493827,670,-0.23522401766468365
336,0.1393777777777777777777777778,672,1.2881811961147676
337,0.1402086419753086419753086419,674,-0.43030181593432987
338,0.1410419753086419753086419753,676,0.5653367752886231
339,0.1418777777777777777777777778,678,-2.006694385042306
340,0.1427160493827160493827160494,680,-2.5444589599992558
341,0.1435567901234567901234567901,682,-1.3760954711013662
342,0.1444,684,-1.7952904310139537
343,0.1452456790123456790123456790,686,-1.6271822697670468
344,0.1460938271604938271604938271,688,-3.393671682426746
345,0.1469444444444444444444444444,690,3.0788522781569645
346,0.1477975308641975308641975308,692,-1.7665948090306063
347,0.1486530864197530864197530865,694,-1.308084437420892
348,0.1495111111111111111111111111,696,-1.0983385426450465
349,0.1503716049382716049382716050,698,0.3052104272981979
350,0.1512345679012345679012345679,700,-0.4418255454007283
351,0.1521,702,0.39797381786986247
352,0.1529679012345679012345679012,704,1.6910528307017023
353,0.1538382716049382716049382716,706,3.193014271284406
354,0.1547111111111111111111111111,708,2.4874536575371424
