,Mass (amu),Time (microseconds),Amplitude
0,0,0,-0.39373232699928046
1,0.000001234567901234567901234567901,2,3.3555927417292204
2,0.000004938271604938271604938271604,4,0.7596758691433184
3,0.00001111111111111111111111111111,6,0.22726260244140759
4,0.00001975308641975308641975308642,8,4.309793857231998
5,0.00003086419753086419753086419754,10,-2.8890801699212085
6,0.00004444444444444444444444444445,12,3.0001637853680734
7,0.00006049382716049382716049382716,14,0.2346266084067228
8,0.00007901234567901234567901234568,16,-2.3640392242050634
9,0.0001,18,1.2557094155866677
10,0.0001234567901234567901234567901,20,-0.05704767569617877
11,0.0001493827160493827160493827160,22,-1.1088650289885662
12,0.0001777777777777777777777777777,24,-0.490575509396331
13,0.0002086419753086419753086419752,26,2.4447330168579193
14,0.0002419753086419753086419753088,28,-6.214031387773265
15,0.0002777777777777777777777777779,30,0.4628122778771283
16,0.0003160493827160493827160493828,32,3.6441520947339843
17,0.0003567901234567901234567901235,34,2.9656233562238365
18,0.0004,36,3.9668156015151887
19,0.0004456790123456790123456790123,38,0.7908645529988617
20,0.0004938271604938271604938271604,40,-4.326436917188063
21,0.0005444444444444444444444444443,42,-1.5065476621893796
22,0.0005975308641975308641975308640,44,4.886889041417707
23,0.0006530864197530864197530864200,46,-2.8992704113748973
24,0.0007111111111111111111111111113,48,-3.516079300882662
25,0.0007716049382716049382716049384,50,2.2684806159336364
26,0.0008345679012345679012345679013,52,1.5495037847209243
27,0.0009,54,0.48694388568147784
28,0.0009679012345679012345679012345,56,6.323342614982449
29,0.001038271604938271604938271605,58,-0.7550460764208752
30,0.001111111111111111111111111111,60,-2.4734493390399255
31,0.001186419753086419753086419753,62,-0.0680847810553826
32,0.001264197530864197530864197531,64,-1.6306768707635064
33,0.001344444444444444444444444445,66,1.0681327853202127
34,0.001427160493827160493827160494,68,1.0604924817625025
35,0.001512345679012345679012345679,70,2.7642296619931837
36,0.0016,72,-2.5523204991297956
37,0.001690123456790123456790123457,74,-0.7610407512643497
38,0.001782716049382716049382716049,76,0.014544950133467124
39,0.001877777777777777777777777777,78,-0.18650441754119998
40,0.001975308641975308641975308642,80,2.072443100992555
41,0.002075308641975308641975308642,82,1.8603663720314858
42,0.002177777777777777777777777778,84,0.8386990372361329
43,0.002282716049382716049382716050,86,0.1234440315031123
44,0.002390123456790123456790123457,88,-0.5164006345365514
45,0.0025,90,4.715635218717551
46,0.002612345679012345679012345679,92,-1.024919436580066
47,0.002727160493827160493827160494,94,-5.2133947482620036
48,0.002844444444444444444444444444,96,2.58695601888093
49,0.002964197530864197530864197530,98,2.5106131554371967
50,0.003086419753086419753086419754,100,1.257936025308127
51,0.003211111111111111111111111111,102,-0.6525359123878054
52,0.003338271604938271604938271605,104,-3.066373534745111
53,0.003467901234567901234567901235,106,-1.5422179489226475
54,0.0036,108,-4.113321276321238
55,0.003734567901234567901234567901,110,0.25949574484289945
56,0.003871604938271604938271604938,112,1.011715075051192
57,0.004011111111111111111111111111,114,-3.198836339189671
58,0.004153086419753086419753086419,116,-1.1102433432014427
59,0.004297530864197530864197530865,118,0.0016489627391953028
60,0.004444444444444444444444444445,120,-0.9661729956583082
61,0.004593827160493827160493827161,122,0.2622835162513653
62,0.004745679012345679012345679012,124,4.472646082309163
63,0.0049,126,-1.0636495171191664
64,0.005056790123456790123456790123,128,3.6890258251671275
65,0.005216049382716049382716049382,130,2.0014004577128413
66,0.005377777777777777777777777777,132,1.1785929336569412
67,0.005541975308641975308641975308,134,2.129562282873607
68,0.005708641975308641975308641976,136,-4.349667595358628
69,0.005877777777777777777777777778,138,3.5657346348696066
70,0.006049382716049382716049382716,140,-0.6066293195152852
71,0.006223456790123456790123456790,142,-0.5233922591041442
72,0.0064,144,-4.893071611661015
73,0.006579012345679012345679012345,146,-0.5309435062884398
74,0.006760493827160493827160493827,148,-0.6149057702036285
75,0.006944444444444444444444444444,150,1.4236143520833593
76,0.007130864197530864197530864197,152,1.1029223066799096
77,0.007319753086419753086419753087,154,4.030526535413183
78,0.007511111111111111111111111112,156,-4.1424497737609505
79,0.007704938271604938271604938272,158,-1.1637656916479677
80,0.007901234567901234567901234568,160,0.562437674502102
81,0.0081,162,1.6392662960187505
82,0.008301234567901234567901234568,164,2.8891496020688163
83,0.008504938271604938271604938271,166,1.5582787167559773
84,0.008711111111111111111111111110,168,-0.492951560271846
85,0.008919753086419753086419753086,170,3.1073076784837523
86,0.009130864197530864197530864198,172,-0.5151551647139984
87,0.009344444444444444444444444445,174,1.0995871632668122
88,0.009560493827160493827160493828,176,1.055778750768311
89,0.009779012345679012345679012346,178,0.3652001603689472
90,0.01,180,1.5214181740867274
91,0.01022345679012345679012345679,182,0.34699175819218614
92,0.01044938271604938271604938271,184,-0.9683020784378661
93,0.01067777777777777777777777777,186,1.8235189945933086
94,0.01090864197530864197530864197,188,2.483472324179125
95,0.01114197530864197530864197532,190,4.338831105714443
96,0.01137777777777777777777777778,192,-0.24016077796399113
97,0.01161604938271604938271604939,194,-1.721415567439593
98,0.01185679012345679012345679013,196,0.4883211965021313
99,0.0121,198,-0.13517615079702822
100,0.01234567901234567901234567901,200,0.453457696249871
101,0.01259382716049382716049382716,202,1.8415788574425997
102,0.01284444444444444444444444444,204,-0.36149210487748623
103,0.01309753086419753086419753085,206,0.9495375517265086
104,0.01335308641975308641975308643,208,1.372001790034012
105,0.01361111111111111111111111112,210,2.6304518746381107
106,0.01387160493827160493827160494,212,0.7980270953683496
107,0.01413456790123456790123456790,214,-1.3607755714041925
108,0.0144,216,-1.8061402086080598
109,0.01466790123456790123456790123,218,-0.47900466933727043
110,0.01493827160493827160493827160,220,2.1208114535208296
111,0.01521111111111111111111111110,222,-4.622951702905291
112,0.01548641975308641975308641974,224,-1.340642646246111
113,0.01576419753086419753086419754,226,-2.277423116802316
114,0.01604444444444444444444444445,228,2.389159598141036
115,0.01632716049382716049382716050,230,0.746521228047191
116,0.01661234567901234567901234568,232,-1.314358921506717
117,0.0169,234,-5.496793535327088
118,0.01719012345679012345679012345,236,3.9210694136784645
119,0.01748271604938271604938271604,238,2.0249483193645297
120,0.01777777777777777777777777777,240,0.591802574066669
121,0.01807530864197530864197530863,242,-0.10603365983294774
122,0.01837530864197530864197530865,244,0.4882916868714863
123,0.01867777777777777777777777779,246,0.8698435425130311
124,0.01898271604938271604938271606,248,2.172992036461428
125,0.01929012345679012345679012346,250,-1.6014815452687252
126,0.0196,252,2.337630357799977
127,0.01991234567901234567901234568,254,0.7574434846910726
128,0.02022716049382716049382716049,256,-2.694977790844609
129,0.02054444444444444444444444443,258,-1.242657224049084
130,0.02086419753086419753086419752,260,2.645919748253042
131,0.02118641975308641975308641977,262,-2.3231807863145715
132,0.02151111111111111111111111112,264,0.9621596532056776
133,0.02183827160493827160493827161,266,-1.9894512917705995
134,0.02216790123456790123456790124,268,0.2951545564976736
135,0.0225,270,-0.8363321977124235
136,0.02283456790123456790123456790,272,2.203875059486614
137,0.02317160493827160493827160493,274,2.941853403485083
138,0.02351111111111111111111111110,276,0.6787472940747336
139,0.02385308641975308641975308641,278,1.466169522838701
140,0.02419753086419753086419753088,280,3.679178825677353
141,0.02454444444444444444444444445,282,0.5079346534239159
142,0.02489382716049382716049382717,284,7.85949212948981
143,0.02524567901234567901234567902,286,-0.9399514843001292
144,0.0256,288,0.9944808658995712
145,0.02595679012345679012345679012,290,-2.8474590598653107
146,0.02631604938271604938271604938,292,0.4227149266671
147,0.02667777777777777777777777777,294,0.045008445743256804
148,0.02704197530864197530864197529,296,-1.1699586754020805
149,0.02740864197530864197530864199,298,-3.03476903054202
150,0.02777777777777777777777777779,300,-0.9158495386074172
151,0.02814938271604938271604938272,302,-2.1457120700232553
152,0.02852345679012345679012345679,304,0.6286172524515187
153,0.0289,306,-1.40478950907678
154,0.02927901234567901234567901234,308,2.2812384696015724
155,0.02966049382716049382716049382,310,-1.7516141911887253
156,0.03004444444444444444444444443,312,-1.7550767969932934
157,0.03043086419753086419753086418,314,-5.949164048526802
158,0.03081975308641975308641975310,316,-2.28828261443702
159,0.03121111111111111111111111112,318,3.4083434502357974
160,0.03160493827160493827160493828,320,-2.130703758470383
161,0.03200123456790123456790123457,322,0.6475248678163805
162,0.0324,324,2.047124700159843
163,0.03280123456790123456790123456,326,-4.6385373382283275
164,0.03320493827160493827160493826,328,-1.5105672212825663
165,0.03361111111111111111111111110,330,0.04628251324306751
166,0.03401975308641975308641975307,332,-0.9291100722792331
167,0.03443086419753086419753086421,334,2.3040568443029046
168,0.03484444444444444444444444446,336,0.6831336595824823
169,0.03526049382716049382716049384,338,-0.42459377731641434
170,0.03567901234567901234567901235,340,-1.5746804667646819
171,0.0361,342,-4.194359250034899
172,0.03652345679012345679012345679,344,-1.8622245364664254
173,0.03694938271604938271604938271,346,2.017933150371222
174,0.03737777777777777777777777776,348,-0.8733102953941939
175,0.03780864197530864197530864196,350,-2.7218800120207614
176,0.03824197530864197530864197533,352,-3.1196563245948075
177,0.03867777777777777777777777779,354,2.066761681534024
178,0.03911604938271604938271604939,356,-0.8988093666994158
179,0.03955679012345679012345679013,358,3.0628325140044064
180,0.04,360,-1.6817564398528366
181,0.04044567901234567901234567901,362,-2.100923941310317
182,0.04089382716049382716049382715,364,1.6160075594891348
183,0.04134444444444444444444444443,366,0.10644788729621933
184,0.04179753086419753086419753085,368,2.58415382276657
185,0.04225308641975308641975308644,370,0.6632079012671902
186,0.04271111111111111111111111112,372,-0.16934921633854694
187,0.04317160493827160493827160495,374,0.8216539158349495
188,0.04363456790123456790123456791,376,-1.439077762829482
189,0.0441,378,-1.2208061548782514
190,0.04456790123456790123456790123,380,-2.3310279336666953
191,0.04503827160493827160493827160,382,-4.371533231935469
192,0.04551111111111111111111111110,384,-2.3272923491666306
193,0.04598641975308641975308641973,386,-3.162372389775292
194,0.04646419753086419753086419755,388,-0.13656579938522953
195,0.04694444444444444444444444446,390,0.8816281743796724
196,0.04742716049382716049382716050,392,-0.8415004430427878
197,0.04791234567901234567901234568,394,-0.9221838611983532
198,0.0484,396,-2.958591381418878
199,0.04889012345679012345679012345,398,-3.1841402224670974
200,0.04938271604938271604938271604,400,-2.077622029723496
201,0.04987777777777777777777777776,402,-4.941838339302857
202,0.05037530864197530864197530862,404,-0.6261247687808429
203,0.05087530864197530864197530866,406,0.829545382083257
204,0.05137777777777777777777777779,408,-3.929213878669023
205,0.05188271604938271604938271606,410,-0.5576214599931031
206,0.05239012345679012345679012346,412,5.06807271795458
207,0.0529,414,-2.8848591297025648
208,0.05341234567901234567901234567,416,-0.5127946123666944
209,0.05392716049382716049382716048,418,0.7111480480772444
210,0.05444444444444444444444444443,420,2.1436401845916766
211,0.05496419753086419753086419751,422,-1.6002032317264534
212,0.05548641975308641975308641977,424,-1.3613344019260682
213,0.05601111111111111111111111113,426,0.10003113874968075
214,0.05653827160493827160493827162,428,1.892025241488696
215,0.05706790123456790123456790124,430,1.9305182150579194
216,0.0576,432,2.7352517997161208
217,0.05813456790123456790123456790,434,2.456640787690158
218,0.05867160493827160493827160493,436,0.14512017185705625
219,0.05921111111111111111111111109,438,-1.426916055929697
220,0.05975308641975308641975308640,440,-3.793860208180757
221,0.06029753086419753086419753089,442,2.0705392081718554
222,0.06084444444444444444444444446,444,-0.006048626651835889
223,0.06139382716049382716049382717,446,-1.8017583777559663
224,0.06194567901234567901234567902,448,-0.1647739481987862
225,0.0625,450,-0.3947803083654985
226,0.06305679012345679012345679012,452,0.27639517967606037
227,0.06361604938271604938271604937,454,-1.05410714125513
228,0.06417777777777777777777777776,456,1.9550418959014848
229,0.06474197530864197530864197529,458,-3.198596983659422
230,0.06530864197530864197530864200,460,-0.7964049645315543
231,0.06587777777777777777777777779,462,-0.3129274580048962
232,0.06644938271604938271604938273,464,0.520571911193164
233,0.06702345679012345679012345680,466,0.4497852957399476
234,0.0676,468,-5.852889685904795
235,0.06817901234567901234567901234,470,-1.7836321739104077
236,0.06876049382716049382716049382,472,-0.4888157885253358
237,0.06934444444444444444444444443,474,0.736946819863113
238,0.06993086419753086419753086417,476,0.6103660537535477
239,0.07051975308641975308641975311,478,1.6514247671058866
240,0.07111111111111111111111111113,480,-0.33826056315343717
241,0.07170493827160493827160493828,482,-0.3658374905366036
242,0.07230123456790123456790123457,484,-1.2598851876901775
243,0.0729,486,4.860784083823093
244,0.07350123456790123456790123456,488,1.0016861169763605
245,0.07410493827160493827160493826,490,-0.12641310390557603
246,0.07471111111111111111111111109,492,-0.44840974605499745
247,0.07531975308641975308641975306,494,-3.0114981357410158
248,0.07593086419753086419753086422,496,2.6395841150871173
249,0.07654444444444444444444444446,498,-0.33557163967961345
250,0.07716049382716049382716049384,500,-3.506926102196499
251,0.07777901234567901234567901235,502,2.590035641908298
252,0.0784,504,2.5960059647726688
253,0.07902345679012345679012345678,506,0.2066689683251237
254,0.07964938271604938271604938270,508,-1.0371256314981636
255,0.08027777777777777777777777776,510,0.6676211866262982
256,0.08090864197530864197530864195,512,-2.2559423965094716
257,0.08154197530864197530864197533,514,1.01560172519595
258,0.08217777777777777777777777780,516,0.8099448912967275
259,0.08281604938271604938271604940,518,2.545120387674507
260,0.08345679012345679012345679013,520,-1.9988671767705017
261,0.0841,522,1.3193926535349862
262,0.08474567901234567901234567901,524,1.131763338986132
263,0.08539382716049382716049382715,526,-3.6503880177447425
264,0.08604444444444444444444444442,528,1.0028084675454598
265,0.08669753086419753086419753084,530,5.1350380783232845
266,0.08735308641975308641975308645,532,0.6223770095224027
267,0.08801111111111111111111111113,534,-0.6396115580417443
268,0.08867160493827160493827160495,536,1.2728556607767572
269,0.08933456790123456790123456791,538,1.287041533756656
270,0.09,540,-0.49871696520280595
271,0.09066790123456790123456790123,542,-0.14135416014114643
272,0.09133827160493827160493827159,544,0.8392919005781015
273,0.09201111111111111111111111109,546,0.20218428162010288
274,0.09268641975308641975308641973,548,-0.11724326404145875
275,0.09336419753086419753086419756,550,2.8472460776423687
276,0.09404444444444444444444444446,552,1.1647133144733945
277,0.09472716049382716049382716051,554,2.8663031316915304
278,0.09541234567901234567901234569,556,-3.80433803451718
279,0.0961,558,-3.5313266373319414
280,0.09679012345679012345679012345,560,4.261349252731132
281,0.09748271604938271604938271604,562,-3.6829315555383104
282,0.09817777777777777777777777776,564,-2.3248245912869065
283,0.09887530864197530864197530861,566,3.4668859440324784
284,0.09957530864197530864197530867,568,-2.5489088060087464
285,0.1002777777777777777777777778,570,-1.32755579279944
286,0.1009827160493827160493827161,572,0.8782967492919851
287,0.1016901234567901234567901235,574,-3.8043380345171776
288,0.1024,576,0.1619575315738284
289,0.1031123456790123456790123457,578,-5.940551114450717
290,0.1038271604938271604938271605,580,0.7648270022058424
291,0.1045444444444444444444444444,582,-3.6644402995719103
292,0.1052641975308641975308641975,584,4.790932220767067
293,0.1059864197530864197530864198,586,1.3673441345624076
294,0.1067111111111111111111111111,588,3.024214343059388
295,0.1074382716049382716049382716,590,-0.02049251513100758
296,0.1081679012345679012345679012,592,-0.28381100043549784
297,0.1089,594,1.9683526121097943
298,0.1096345679012345679012345679,596,-2.1029681532945017
299,0.1103716049382716049382716049,598,0.22444204117086214
300,0.1111111111111111111111111111,600,0.19592846375462106
301,0.1118530864197530864197530864,602,1.5376761022713787
302,0.1125975308641975308641975309,604,-1.5161479638150974
303,0.1133444444444444444444444445,606,-1.3250070573583195
304,0.1140938271604938271604938272,608,1.3610832972656581
305,0.1148456790123456790123456790,610,3.6876257497826033
306,0.1156,612,0.03873428602470879
307,0.1163567901234567901234567901,614,0.5082926616155724
308,0.1171160493827160493827160494,616,0.06930469804936212
309,0.1178777777777777777777777778,618,-0.47124977289184367
310,0.1186419753086419753086419753,620,-5.455211044016425
311,0.1194086419753086419753086420,622,-1.884036150402705
312,0.1201777777777777777777777778,624,-1.7600176781341967
313,0.1209493827160493827160493827,626,-0.2983143535393764
314,0.1217234567901234567901234568,628,-2.358546201621381
315,0.1225,630,-4.479298776523747
316,0.1232790123456790123456790123,632,5.593645145362768
317,0.1240604938271604938271604938,634,-0.9121935451835659
318,0.1248444444444444444444444444,636,-0.6608975715199035
319,0.1256308641975308641975308642,638,3.2826709548297255
320,0.1264197530864197530864197531,640,-2.4430233782770667
321,0.1272111111111111111111111111,642,-1.3551612196393281
322,0.1280049382716049382716049383,644,-2.9349832546436603
323,0.1288012345679012345679012346,646,0.11025683096721965
324,0.1296,648,1.1354568214523741
325,0.1304012345679012345679012346,650,-0.25458803661285595
326,0.1312049382716049382716049383,652,-0.16919021179483384
327,0.1320111111111111111111111111,654,-2.7327941657187536
328,0.1328197530864197530864197531,656,-2.6996948136154697
329,0.1336308641975308641975308642,658,-0.9488668542117149
330,0.1344444444444444444444444445,660,-0.004511906984482427
331,0.1352604938271604938271604938,662,2.9477052748761974
332,0.1360790123456790123456790124,664,0.6377111511413145
333,0.1369,666,-0.0654897931419207
334,0.1377234567901234567901234568,668,-4.586548641536673
335,0.1385493827160493827160493827,670,0.2585997747940648
336,0.1393777777777777777777777778,672,-3.554681340300019
337,0.1402086419753086419753086419,674,0.6141245839524647
338,0.1410419753086419753086419753,676,-1.9308958656045838
339,0.1418777777777777777777777778,678,-0.832571059719531
340,0.1427160493827160493827160494,680,-0.9870829980325918
341,0.1435567901234567901234567901,682,1.7659803964877503
342,0.1444,684,-3.1266327426110108
343,0.1452456790123456790123456790,686,-2.7228922147280428
344,0.1460938271604938271604938271,688,1.8638966822830765
345,0.1469444444444444444444444444,690,-0.21943990162653043
346,0.1477975308641975308641975308,692,-1.9316436115925022
347,0.1486530864197530864197530865,694,4.5338999269953355
348,0.1495111111111111111111111111,696,-1.374706699168186
349,0.1503716049382716049382716050,698,-2.279317116375853
350,0.1512345679012345679012345679,700,-5.861299581538046
351,0.1521,702,1.0552840126202563
352,0.1529679012345679012345679012,704,-1.3082821308671084
353,0.1538382716049382716049382716,706,-2.4813736894655793
354,0.1547111111111111111111111111,708,-4.743201035337385
