,Mass (amu),Time (microseconds),Amplitude
0,0,0,-1.8213990057788692
1,0.000001234567901234567901234567901,2,-1.9187887839661057
2,0.000004938271604938271604938271604,4,-0.49943742660855317
3,0.00001111111111111111111111111111,6,1.4025777516313005
4,0.00001975308641975308641975308642,8,-1.7319466276312012
5,0.00003086419753086419753086419754,10,5.614618336135404
6,0.00004444444444444444444444444445,12,-0.11600077308869879
7,0.00006049382716049382716049382716,14,0.013469655569523148
8,0.00007901234567901234567901234568,16,-3.7292292527326647
9,0.0001,18,2.4938025251350147
10,0.0001234567901234567901234567901,20,-0.8484554888204583
11,0.0001493827160493827160493827160,22,0.5413380999459501
12,0.0001777777777777777777777777777,24,2.951125478726509
13,0.0002086419753086419753086419752,26,0.6731124900552558
14,0.0002419753086419753086419753088,28,-3.1167982478093545
15,0.0002777777777777777777777777779,30,-1.8271282468091306
16,0.0003160493827160493827160493828,32,-2.014625382507367
17,0.0003567901234567901234567901235,34,2.660591285500749
18,0.0004,36,-3.54908998154905
19,0.0004456790123456790123456790123,38,1.8672320914652074
20,0.0004938271604938271604938271604,40,-1.3580997717047665
21,0.0005444444444444444444444444443,42,-1.6229511149307767
22,0.0005975308641975308641975308640,44,2.1366647009481845
23,0.0006530864197530864197530864200,46,4.32460234283885
24,0.0007111111111111111111111111113,48,-1.6816778929350067
25,0.0007716049382716049382716049384,50,-0.9210096636228273
26,0.0008345679012345679012345679013,52,-0.5635867104564836
27,0.0009,54,-0.13511676796988942
28,0.0009679012345679012345679012345,56,0.33137869061257136
29,0.001038271604938271604938271605,58,-3.6972022935273667
30,0.001111111111111111111111111111,60,-3.1321099482894734
31,0.001186419753086419753086419753,62,-3.9458653757499205
32,0.001264197530864197530864197531,64,-1.8190480427102587
33,0.001344444444444444444444444445,66,-3.836701605727899
34,0.001427160493827160493827160494,68,0.6354133533394192
35,0.001512345679012345679012345679,70,-2.11771484481211
36,0.0016,72,-3.402405784172541
37,0.001690123456790123456790123457,74,-1.330564094504091
38,0.001782716049382716049382716049,76,-1.4499191202457562
39,0.001877777777777777777777777777,78,-3.9271287640499932
40,0.001975308641975308641975308642,80,-0.45406643116469475
41,0.002075308641975308641975308642,82,1.5134999187936569
42,0.002177777777777777777777777778,84,-0.7696612114017932
43,0.002282716049382716049382716050,86,1.8066808499712186
44,0.002390123456790123456790123457,88,-0.8436068045503432
45,0.0025,90,0.9931536613638821
46,0.002612345679012345679012345679,92,2.602784904747749
47,0.002727160493827160493827160494,94,1.2950988635911853
48,0.002844444444444444444444444444,96,1.7751520053110927
49,0.002964197530864197530864197530,98,0.3744241094971982
50,0.003086419753086419753086419754,100,3.548723891554844
51,0.003211111111111111111111111111,102,-0.6923524946154546
52,0.003338271604938271604938271605,104,-4.815282141190299
53,0.003467901234567901234567901235,106,3.521421785939053
54,0.0036,108,-2.9154967685925053
55,0.003734567901234567901234567901,110,3.674768265125524
56,0.003871604938271604938271604938,112,2.554338163624161
57,0.004011111111111111111111111111,114,-0.11222968748490193
58,0.004153086419753086419753086419,116,-3.8068363278239667
59,0.004297530864197530864197530865,118,2.4464110852281746
60,0.004444444444444444444444444445,120,1.8483094782214464
61,0.004593827160493827160493827161,122,-1.957318639824224
62,0.004745679012345679012345679012,124,-0.8178357628896349
63,0.0049,126,0.6385104646726616
64,0.005056790123456790123456790123,128,0.2813796339755771
65,0.005216049382716049382716049382,130,-0.6970862752427298
66,0.005377777777777777777777777777,132,0.31517774484816036
67,0.005541975308641975308641975308,134,0.9505024071193556
68,0.005708641975308641975308641976,136,5.863102030214442
69,0.005877777777777777777777777778,138,0.4229980007131025
70,0.006049382716049382716049382716,140,-0.4054876626765155
71,0.006223456790123456790123456790,142,-1.1686584418088566
72,0.0064,144,4.500160095384176
73,0.006579012345679012345679012345,146,2.5468865939034604
74,0.006760493827160493827160493827,148,2.881055114888392
75,0.006944444444444444444444444444,150,-2.293005946509953
76,0.007130864197530864197530864197,152,-0.017516689190216025
77,0.007319753086419753086419753087,154,-2.379083939038318
78,0.007511111111111111111111111112,156,-0.026295044344843227
79,0.007704938271604938271604938272,158,-0.03458934327431322
80,0.007901234567901234567901234568,160,-3.470166334020004
81,0.0081,162,3.783797277608328
82,0.008301234567901234567901234568,164,0.654215373953606
83,0.008504938271604938271604938271,166,-1.1553000566627245
84,0.008711111111111111111111111110,168,0.799463766176173
85,0.008919753086419753086419753086,170,-1.5209944732136038
86,0.009130864197530864197530864198,172,1.0173785331505794
87,0.009344444444444444444444444445,174,0.067477208597898
88,0.009560493827160493827160493828,176,0.14976603785664794
89,0.009779012345679012345679012346,178,-1.7523027977424406
90,0.01,180,-2.265576587596068
91,0.01022345679012345679012345679,182,3.100536407233271
92,0.01044938271604938271604938271,184,-3.4705901671177113
93,0.01067777777777777777777777777,186,3.3590759522422493
94,0.01090864197530864197530864197,188,0.1872025178253378
95,0.01114197530864197530864197532,190,-0.39813159199771825
96,0.01137777777777777777777777778,192,-0.6626142462845109
97,0.01161604938271604938271604939,194,-2.67781776498922
98,0.01185679012345679012345679013,196,1.240202522645402
99,0.0121,198,-4.347870069594424
100,0.01234567901234567901234567901,200,-3.286538315057886
101,0.01259382716049382716049382716,202,-6.169251173800083
102,0.01284444444444444444444444444,204,-1.88487006680705
103,0.01309753086419753086419753085,206,0.3351113529598513
104,0.01335308641975308641975308643,208,0.06328647788308345
105,0.01361111111111111111111111112,210,-2.8876614235636846
106,0.01387160493827160493827160494,212,3.6210796618661987
107,0.01413456790123456790123456790,214,3.2429405108789022
108,0.0144,216,0.9752648232519288
109,0.01466790123456790123456790123,218,-2.6421050140676576
110,0.01493827160493827160493827160,220,0.7246363574541784
111,0.01521111111111111111111111110,222,2.833671882784189
112,0.01548641975308641975308641974,224,-0.8858639064243895
113,0.01576419753086419753086419754,226,0.7591708006816351
114,0.01604444444444444444444444445,228,-2.3606303750506314
115,0.01632716049382716049382716050,230,1.404739163760112
116,0.01661234567901234567901234568,232,1.65820028859898
117,0.0169,234,0.8724477899372453
118,0.01719012345679012345679012345,236,0.6941150692385822
119,0.01748271604938271604938271604,238,-3.380347270777976
120,0.01777777777777777777777777777,240,0.4172901381788737
121,0.01807530864197530864197530863,242,-5.182956979202434
122,0.01837530864197530864197530865,244,0.5256636314951688
123,0.01867777777777777777777777779,246,1.3888252207972922
124,0.01898271604938271604938271606,248,-0.46755209205398435
125,0.01929012345679012345679012346,250,-3.211806260092398
126,0.0196,252,-2.451739252944132
127,0.01991234567901234567901234568,254,1.2440632045829534
128,0.02022716049382716049382716049,256,2.5234415183936667
129,0.02054444444444444444444444443,258,-0.8995440923820869
130,0.02086419753086419753086419752,260,-0.7141012792558313
131,0.02118641975308641975308641977,262,-2.459016044754878
132,0.02151111111111111111111111112,264,-0.491485835760628
133,0.02183827160493827160493827161,266,-0.9946841953073391
134,0.02216790123456790123456790124,268,-0.8317223297602594
135,0.0225,270,-5.38993267760748
136,0.02283456790123456790123456790,272,4.622937393175161
137,0.02317160493827160493827160493,274,2.950370183054126
138,0.02351111111111111111111111110,276,4.253819101611524
139,0.02385308641975308641975308641,278,2.536116114785711
140,0.02419753086419753086419753088,280,-0.44672660801039965
141,0.02454444444444444444444444445,282,-1.063311040431456
142,0.02489382716049382716049382717,284,-0.5940651775286722
143,0.02524567901234567901234567902,286,0.3997681478128379
144,0.0256,288,-0.05401787012248928
145,0.02595679012345679012345679012,290,-1.5808992970007254
146,0.02631604938271604938271604938,292,-2.703095778306085
147,0.02667777777777777777777777777,294,2.0961762731722797
148,0.02704197530864197530864197529,296,-3.780644840612101
149,0.02740864197530864197530864199,298,-0.5776740865074016
150,0.02777777777777777777777777779,300,-1.9480567193658365
151,0.02814938271604938271604938272,302,1.7554379372715703
152,0.02852345679012345679012345679,304,-0.8793952030930533
153,0.0289,306,-4.0176332167876465
154,0.02927901234567901234567901234,308,0.09120266117341258
155,0.02966049382716049382716049382,310,3.3923058496031904
156,0.03004444444444444444444444443,312,-1.2495228194049723
157,0.03043086419753086419753086418,314,4.29535656830133
158,0.03081975308641975308641975310,316,-0.45173883579234647
159,0.03121111111111111111111111112,318,-6.2608431714358534
160,0.03160493827160493827160493828,320,-0.22638667569144033
161,0.03200123456790123456790123457,322,-3.7152184927623573
162,0.0324,324,-1.8888695975812377
163,0.03280123456790123456790123456,326,-0.5498262616053148
164,0.03320493827160493827160493826,328,-0.5097097442833681
165,0.03361111111111111111111111110,330,-0.7108873113535902
166,0.03401975308641975308641975307,332,1.935237002487846
167,0.03443086419753086419753086421,334,-0.04755854106935041
168,0.03484444444444444444444444446,336,-4.445921015905278
169,0.03526049382716049382716049384,338,3.1196233477656063
170,0.03567901234567901234567901235,340,0.003144603660273923
171,0.0361,342,1.5202105510228283
172,0.03652345679012345679012345679,344,-1.608898493535927
173,0.03694938271604938271604938271,346,0.125670842243491
174,0.03737777777777777777777777776,348,2.6143336467476828
175,0.03780864197530864197530864196,350,2.8219419651535165
176,0.03824197530864197530864197533,352,-0.2323195402148464
177,0.03867777777777777777777777779,354,-2.0874643324720634
178,0.03911604938271604938271604939,356,-5.578361149298353
179,0.03955679012345679012345679013,358,1.8312238102948355
180,0.04,360,-4.915908629559505
181,0.04044567901234567901234567901,362,-3.2868338955520757
182,0.04089382716049382716049382715,364,-5.378388035122379
183,0.04134444444444444444444444443,366,-0.8104911449338207
184,0.04179753086419753086419753085,368,3.464316874730716
185,0.04225308641975308641975308644,370,2.6409781623237727
186,0.04271111111111111111111111112,372,7.290410810728606
187,0.04317160493827160493827160495,374,-1.8586848776223857
188,0.04363456790123456790123456791,376,-2.8833526238317377
189,0.0441,378,-3.0784819479194043
190,0.04456790123456790123456790123,380,1.3844283285482488
191,0.04503827160493827160493827160,382,-2.381454611604925
192,0.04551111111111111111111111110,384,0.001049905137765702
193,0.04598641975308641975308641973,386,-1.3797006706692272
194,0.04646419753086419753086419755,388,-4.30115232955523
195,0.04694444444444444444444444446,390,-3.7628999434849155
196,0.04742716049382716049382716050,392,1.356415007141034
197,0.04791234567901234567901234568,394,4.387613493302277
198,0.0484,396,-0.054820571886620595
199,0.04889012345679012345679012345,398,-2.692493982816644
200,0.04938271604938271604938271604,400,-1.0023443201941447
201,0.04987777777777777777777777776,402,-0.033314395725589384
202,0.05037530864197530864197530862,404,-2.542860862011521
203,0.05087530864197530864197530866,406,1.8969618365003302
204,0.05137777777777777777777777779,408,-4.1899332863761085
205,0.05188271604938271604938271606,410,1.3270851161746853
206,0.05239012345679012345679012346,412,-1.4069331818129955
207,0.0529,414,-2.281602506566762
208,0.05341234567901234567901234567,416,4.185949374138491
209,0.05392716049382716049382716048,418,-6.614721178170766
210,0.05444444444444444444444444443,420,2.5330835912103784
211,0.05496419753086419753086419751,422,1.1520799796449577
212,0.05548641975308641975308641977,424,3.4761068182066603
213,0.05601111111111111111111111113,426,-2.2501369413183423
214,0.05653827160493827160493827162,428,1.348923922232395
215,0.05706790123456790123456790124,430,1.0761851646725267
216,0.0576,432,1.9909932860824178
217,0.05813456790123456790123456790,434,0.4988772447565341
218,0.05867160493827160493827160493,436,-2.7544427002405505
219,0.05921111111111111111111111109,438,0.6438429258576192
220,0.05975308641975308641975308640,440,-5.054491459135001
221,0.06029753086419753086419753089,442,2.3726232820876887
222,0.06084444444444444444444444446,444,-0.5304671918876024
223,0.06139382716049382716049382717,446,0.7303505364423988
224,0.06194567901234567901234567902,448,-3.2095060946024168
225,0.0625,450,-1.1178779802545833
226,0.06305679012345679012345679012,452,-1.2672644154525083
227,0.06361604938271604938271604937,454,1.8591232180221138
228,0.06417777777777777777777777776,456,-1.6496476457483389
229,0.06474197530864197530864197529,458,1.1460190503647045
230,0.06530864197530864197530864200,460,-2.3405532237610567
231,0.06587777777777777777777777779,462,4.51085711387511
232,0.06644938271604938271604938273,464,-1.9036732885684544
233,0.06702345679012345679012345680,466,0.904872962881077
234,0.0676,468,0.6712422056246206
235,0.06817901234567901234567901234,470,-5.552055908200419
236,0.06876049382716049382716049382,472,2.541934074076477
237,0.06934444444444444444444444443,474,0.5836430860793641
238,0.06993086419753086419753086417,476,-2.7390146317949355
239,0.07051975308641975308641975311,478,1.8967627319400513
240,0.07111111111111111111111111113,480,2.4154461378048744
241,0.07170493827160493827160493828,482,-0.28413095555375145
242,0.07230123456790123456790123457,484,1.0611323986955126
243,0.0729,486,2.623886577563028
244,0.07350123456790123456790123456,488,1.6292894084452885
245,0.07410493827160493827160493826,490,-1.2985913268651728
246,0.07471111111111111111111111109,492,2.2644081432263534
247,0.07531975308641975308641975306,494,1.5725695079037092
248,0.07593086419753086419753086422,496,-0.19064002135108848
249,0.07654444444444444444444444446,498,2.5229486012902353
250,0.07716049382716049382716049384,500,0.10897660012424658
251,0.07777901234567901234567901235,502,-1.5656275600816765
252,0.0784,504,-4.190338089580264
253,0.07902345679012345679012345678,506,0.01302857823607802
254,0.07964938271604938271604938270,508,3.16313725871234
255,0.08027777777777777777777777776,510,-0.5781916593544971
256,0.08090864197530864197530864195,512,-0.8938439676375075
257,0.08154197530864197530864197533,514,1.8810206198475508
258,0.08217777777777777777777777780,516,-0.40214370075215106
259,0.08281604938271604938271604940,518,-2.428011113597817
260,0.08345679012345679012345679013,520,-3.4545230801804547
261,0.0841,522,3.2387378748805076
262,0.08474567901234567901234567901,524,2.0796323010392705
263,0.08539382716049382716049382715,526,-1.284678398874284
264,0.08604444444444444444444444442,528,1.000875608930626
265,0.08669753086419753086419753084,530,-0.7778473655612188
266,0.08735308641975308641975308645,532,-2.061461863448488
267,0.08801111111111111111111111113,534,-0.9230478756803373
268,0.08867160493827160493827160495,536,-2.0923619169516803
269,0.08933456790123456790123456791,538,-0.9774680077694626
270,0.09,540,-1.7690646057570627
271,0.09066790123456790123456790123,542,-0.9458859461450462
272,0.09133827160493827160493827159,544,0.48873214521988
273,0.09201111111111111111111111109,546,0.3617406770001788
274,0.09268641975308641975308641973,548,-2.71821920441773
275,0.09336419753086419753086419756,550,-1.6148569617379538
276,0.09404444444444444444444444446,552,1.0229874395322396
277,0.09472716049382716049382716051,554,0.5635797266447183
278,0.09541234567901234567901234569,556,2.8228701770862488
279,0.0961,558,-0.9113879498586022
280,0.09679012345679012345679012345,560,1.4113014845567224
281,0.09748271604938271604938271604,562,3.3671270691832387
282,0.09817777777777777777777777776,564,0.4912662230709132
283,0.09887530864197530864197530861,566,5.17004014462804
284,0.09957530864197530864197530867,568,-1.299054288172799
285,0.1002777777777777777777777778,570,-2.3660735158543624
286,0.1009827160493827160493827161,572,0.19013075433146356
287,0.1016901234567901234567901235,574,1.242319311308343
288,0.1024,576,1.4675294951273998
289,0.1031123456790123456790123457,578,2.410482091763508
290,0.1038271604938271604938271605,580,-1.2019360050288728
291,0.1045444444444444444444444444,582,-0.14101256842144108
292,0.1052641975308641975308641975,584,-0.1972391838723196
293,0.1059864197530864197530864198,586,-0.40209691503789385
294,0.1067111111111111111111111111,588,-0.5348133762124256
295,0.1074382716049382716049382716,590,-0.27445274237921125
296,0.1081679012345679012345679012,592,0.7853095664958988
297,0.1089,594,0.43986611785032526
298,0.1096345679012345679012345679,596,-0.2506787818011063
299,0.1103716049382716049382716049,598,1.6425919315499862
300,0.1111111111111111111111111111,600,-0.5569449274853547
301,0.1118530864197530864197530864,602,-5.559594385939833
302,0.1125975308641975308641975309,604,-3.64129926122833
303,0.1133444444444444444444444445,606,0.3638321087190819
304,0.1140938271604938271604938272,608,-1.6273912990713277
305,0.1148456790123456790123456790,610,-1.8577704321745774
306,0.1156,612,-0.582828136875407
307,0.1163567901234567901234567901,614,1.6978736480964574
308,0.1171160493827160493827160494,616,-3.4523431816516457
309,0.1178777777777777777777777778,618,-1.5693924810172057
310,0.1186419753086419753086419753,620,3.16144645208072
311,0.1194086419753086419753086420,622,2.9371347687039213
312,0.1201777777777777777777777778,624,0.5282042839313831
313,0.1209493827160493827160493827,626,-0.10340817045817736
314,0.1217234567901234567901234568,628,2.8547446426170024
315,0.1225,630,-2.0923619169516803
316,0.1232790123456790123456790123,632,-0.6508839504146636
317,0.1240604938271604938271604938,634,1.985828871127338
318,0.1248444444444444444444444444,636,-0.29672038786503685
319,0.1256308641975308641975308642,638,3.0533812087690104
320,0.1264197530864197530864197531,640,2.925997029828092
321,0.1272111111111111111111111111,642,-4.23968060211357
322,0.1280049382716049382716049383,644,-2.0099681838835126
323,0.1288012345679012345679012346,646,3.504699373521288
324,0.1296,648,3.9081922576251404
325,0.1304012345679012345679012346,650,0.654201715333392
326,0.1312049382716049382716049383,652,-2.732411440270812
327,0.1320111111111111111111111111,654,0.10575169906806774
328,0.1328197530864197530864197531,656,3.668705352647987
329,0.1336308641975308641975308642,658,1.0702963379490926
330,0.1344444444444444444444444445,660,-2.436626255108941
331,0.1352604938271604938271604938,662,-3.4301061068381036
332,0.1360790123456790123456790124,664,-0.41555336828314826
333,0.1369,666,1.1141294047927097
334,0.1377234567901234567901234568,668,3.9627997202258394
335,0.1385493827160493827160493827,670,-0.3572206719671593
336,0.1393777777777777777777777778,672,-2.7555599972678384
337,0.1402086419753086419753086419,674,-4.050868097479469
338,0.1410419753086419753086419753,676,4.049034689795256
339,0.1418777777777777777777777778,678,1.9643369006909643
340,0.1427160493827160493827160494,680,-0.5350231281575867
341,0.1435567901234567901234567901,682,-3.928118700880203
342,0.1444,684,0.9729751372398798
343,0.1452456790123456790123456790,686,-0.7234908839351221
344,0.1460938271604938271604938271,688,-3.457020523438643
345,0.1469444444444444444444444444,690,-4.894540932913122
346,0.1477975308641975308641975308,692,-0.1226236057462818
347,0.1486530864197530864197530865,694,1.3283010174325416
348,0.1495111111111111111111111111,696,-1.1428033658631211
349,0.1503716049382716049382716050,698,-3.8607249652944438
350,0.1512345679012345679012345679,700,0.3022870882933699
351,0.1521,702,3.016294121626921
352,0.1529679012345679012345679012,704,1.8103950993642686
353,0.1538382716049382716049382716,706,-1.6666493428979585
354,0.1547111111111111111111111111,708,-3.388989272667743
