,Mass (amu),Time (microseconds),Amplitude
0,0,0,1.2991763741336027
1,0.000001234567901234567901234567901,2,-1.081097401773261
2,0.000004938271604938271604938271604,4,-3.3907095504935274
3,0.00001111111111111111111111111111,6,-1.767175970970477
4,0.00001975308641975308641975308642,8,-1.8958646554702776
5,0.00003086419753086419753086419754,10,-1.7386922420381365
6,0.00004444444444444444444444444445,12,-1.6037900629074662
7,0.00006049382716049382716049382716,14,-1.8405428068622551
8,0.00007901234567901234567901234568,16,-0.8753329285167248
9,0.0001,18,-3.247999962514663
10,0.0001234567901234567901234567901,20,3.6863562412937045
11,0.0001493827160493827160493827160,22,-2.6284803668431804
12,0.0001777777777777777777777777777,24,2.5108578308540155
13,0.0002086419753086419753086419752,26,1.0684154237283965
14,0.0002419753086419753086419753088,28,1.8200087763509578
15,0.0002777777777777777777777777779,30,-1.8934797745765328
16,0.0003160493827160493827160493828,32,-1.433951789406071
17,0.0003567901234567901234567901235,34,0.24214948849503581
18,0.0004,36,-0.15234855635070377
19,0.0004456790123456790123456790123,38,-1.462690871273941
20,0.0004938271604938271604938271604,40,-2.8786016316351173
21,0.0005444444444444444444444444443,42,-1.3489978999656602
22,0.0005975308641975308641975308640,44,1.9091367203156546
23,0.0006530864197530864197530864200,46,-0.021999202769392923
24,0.0007111111111111111111111111113,48,-2.042948906719454
25,0.0007716049382716049382716049384,50,3.5273890692921097
26,0.0008345679012345679012345679013,52,0.930010157871798
27,0.0009,54,-0.2961425782913462
28,0.0009679012345679012345679012345,56,-0.08841879373848024
29,0.001038271604938271604938271605,58,-4.2504874192583655
30,0.001111111111111111111111111111,60,-1.01197673604931
31,0.001186419753086419753086419753,62,0.07389343462175017
32,0.001264197530864197530864197531,64,0.23990643607542225
33,0.001344444444444444444444444445,66,-0.730070304167474
34,0.001427160493827160493827160494,68,-0.8295673408041018
35,0.001512345679012345679012345679,70,-3.857842209552901
36,0.0016,72,0.9736069908337172
37,0.001690123456790123456790123457,74,4.476339812804858
38,0.001782716049382716049382716049,76,0.4142697772413676
39,0.001877777777777777777777777777,78,3.0675081459602738
40,0.001975308641975308641975308642,80,-0.25232421613224026
41,0.002075308641975308641975308642,82,-0.7264500907156103
42,0.002177777777777777777777777778,84,-3.6173889136213893
43,0.002282716049382716049382716050,86,-1.8334692299411126
44,0.002390123456790123456790123457,88,-1.4489904485464815
45,0.0025,90,4.7838362789151185
46,0.002612345679012345679012345679,92,-2.23984113541141
47,0.002727160493827160493827160494,94,-3.2984728425608765
48,0.002844444444444444444444444444,96,-1.6868774472255568
49,0.002964197530864197530864197530,98,2.4190244793191025
50,0.003086419753086419753086419754,100,4.014293858599915
51,0.003211111111111111111111111111,102,5.303462520644093
52,0.003338271604938271604938271605,104,0.33941822398972443
53,0.003467901234567901234567901235,106,2.0567544336791337
54,0.0036,108,-0.8378332210353961
55,0.003734567901234567901234567901,110,1.5961826655015647
56,0.003871604938271604938271604938,112,-0.3363421069846499
57,0.004011111111111111111111111111,114,-1.4578313640696436
58,0.004153086419753086419753086419,116,1.807647481855642
59,0.004297530864197530864197530865,118,1.6849196593432458
60,0.004444444444444444444444444445,120,-0.7507995727287287
61,0.004593827160493827160493827161,122,4.3313360950928885
62,0.004745679012345679012345679012,124,3.3163953881249597
63,0.0049,126,1.6775812040835496
64,0.005056790123456790123456790123,128,-0.6440912241633908
65,0.005216049382716049382716049382,130,2.3780919208645526
66,0.005377777777777777777777777777,132,0.1423751354963715
67,0.005541975308641975308641975308,134,0.4036121124313557
68,0.005708641975308641975308641976,136,-1.7799826288445915
69,0.005877777777777777777777777778,138,-1.0917090597974968
70,0.006049382716049382716049382716,140,-4.264859304570558
71,0.006223456790123456790123456790,142,0.9977137038742461
72,0.0064,144,0.2442428244111113
73,0.006579012345679012345679012345,146,3.8376063620446277
74,0.006760493827160493827160493827,148,-0.07095737408165081
75,0.006944444444444444444444444444,150,-0.7222647643922766
76,0.007130864197530864197530864197,152,1.6707187184240575
77,0.007319753086419753086419753087,154,2.243119099076925
78,0.007511111111111111111111111112,156,-2.137576159377732
79,0.007704938271604938271604938272,158,3.229839180133148
80,0.007901234567901234567901234568,160,-2.5223058577670674
81,0.0081,162,-2.0501488276932727
82,0.008301234567901234567901234568,164,-0.05562699540422745
83,0.008504938271604938271604938271,166,0.10098402879656444
84,0.008711111111111111111111111110,168,1.3067073577774835
85,0.008919753086419753086419753086,170,-0.004198710562401089
86,0.009130864197530864197530864198,172,-1.615033347720844
87,0.009344444444444444444444444445,174,-6.436807962372839
88,0.009560493827160493827160493828,176,0.04594420310343124
89,0.009779012345679012345679012346,178,-2.6348925953276234
90,0.01,180,2.4710256687069525
91,0.01022345679012345679012345679,182,-0.4922858021487649
92,0.01044938271604938271604938271,184,-3.9990890683468048
93,0.01067777777777777777777777777,186,1.2281734309393548
94,0.01090864197530864197530864197,188,-4.510009459169877
95,0.01114197530864197530864197532,190,-3.9140169537752754
96,0.01137777777777777777777777778,192,-2.392194258114106
97,0.01161604938271604938271604939,194,3.067809654306736
98,0.01185679012345679012345679013,196,3.2395308295673386
99,0.0121,198,0.5890600035103556
100,0.01234567901234567901234567901,200,0.03356694085645724
101,0.01259382716049382716049382716,202,-4.612527244053773
102,0.01284444444444444444444444444,204,-2.663668532678033
103,0.01309753086419753086419753085,206,-0.09250361149670522
104,0.01335308641975308641975308643,208,-1.186599694810563
105,0.01361111111111111111111111112,210,-5.747748686347771
106,0.01387160493827160493827160494,212,0.9849487656947458
107,0.01413456790123456790123456790,214,4.580585424797496
108,0.0144,216,-1.089896231737382
109,0.01466790123456790123456790123,218,-1.442759567200841
110,0.01493827160493827160493827160,220,-2.5228325131715765
111,0.01521111111111111111111111110,222,0.12329810161011677
112,0.01548641975308641975308641974,224,2.3792579306901795
113,0.01576419753086419753086419754,226,-0.6923920712455975
114,0.01604444444444444444444444445,228,1.9309631406365522
115,0.01632716049382716049382716050,230,-1.9893738899620352
116,0.01661234567901234567901234568,232,2.1582582859922694
117,0.0169,234,3.547941598120702
118,0.01719012345679012345679012345,236,-0.05186888825403464
119,0.01748271604938271604938271604,238,-0.609696412008479
120,0.01777777777777777777777777777,240,-4.4557198257933655
121,0.01807530864197530864197530863,242,-3.4837108226859947
122,0.01837530864197530864197530865,244,1.032931695057767
123,0.01867777777777777777777777779,246,1.3833743028454468
124,0.01898271604938271604938271606,248,0.2930627517910611
125,0.01929012345679012345679012346,250,-1.2433423935528987
126,0.0196,252,-1.5168818120080676
127,0.01991234567901234567901234568,254,1.1040977506695615
128,0.02022716049382716049382716049,256,3.8202166427998145
129,0.02054444444444444444444444443,258,3.183802113381115
130,0.02086419753086419753086419752,260,3.006890501975491
131,0.02118641975308641975308641977,262,0.745784371694762
132,0.02151111111111111111111111112,264,-1.3650478121425742
133,0.02183827160493827160493827161,266,0.06624657835567033
134,0.02216790123456790123456790124,268,-1.256500439234911
135,0.0225,270,-2.793116891599065
136,0.02283456790123456790123456790,272,-0.15373270925551696
137,0.02317160493827160493827160493,274,-0.4762316537658271
138,0.02351111111111111111111111110,276,3.2915219107945064
139,0.02385308641975308641975308641,278,2.059370029515015
140,0.02419753086419753086419753088,280,-2.5684582892652323
141,0.02454444444444444444444444445,282,-2.0465994328043684
142,0.02489382716049382716049382717,284,3.3235863570498534
143,0.02524567901234567901234567902,286,-2.644880072590123
144,0.0256,288,4.271121464088816
145,0.02595679012345679012345679012,290,-1.422979735726049
146,0.02631604938271604938271604938,292,0.39205251330150265
147,0.02667777777777777777777777777,294,-3.1841698398998375
148,0.02704197530864197530864197529,296,0.17207426251994243
149,0.02740864197530864197530864199,298,-0.7002773855568191
150,0.02777777777777777777777777779,300,0.6708302636758414
151,0.02814938271604938271604938272,302,1.6036563565300095
152,0.02852345679012345679012345679,304,0.024830311590831634
153,0.0289,306,-1.8824975205784864
154,0.02927901234567901234567901234,308,-2.282369882616634
155,0.02966049382716049382716049382,310,-1.6495182950641254
156,0.03004444444444444444444444443,312,1.9629709296306574
157,0.03043086419753086419753086418,314,1.4258998953234465
158,0.03081975308641975308641975310,316,0.6440068015507204
159,0.03121111111111111111111111112,318,1.8819605589580481
160,0.03160493827160493827160493828,320,-1.7243153989251212
161,0.03200123456790123456790123457,322,2.740312476783229
162,0.0324,324,-2.290711813620222
163,0.03280123456790123456790123456,326,0.8846624102479667
164,0.03320493827160493827160493826,328,0.4383919752110841
165,0.03361111111111111111111111110,330,2.659369908581097
166,0.03401975308641975308641975307,332,-0.295105549107065
167,0.03443086419753086419753086421,334,-1.4711336875188288
168,0.03484444444444444444444444446,336,1.6358904628913502
169,0.03526049382716049382716049384,338,-0.6364376115064634
170,0.03567901234567901234567901235,340,2.365039241158296
171,0.0361,342,-1.7920391670358644
172,0.03652345679012345679012345679,344,3.3530485736640276
173,0.03694938271604938271604938271,346,0.8237273060540098
174,0.03737777777777777777777777776,348,-4.887416427267677
175,0.03780864197530864197530864196,350,-0.6803646124331351
176,0.03824197530864197530864197533,352,0.7209819909506823
177,0.03867777777777777777777777779,354,-1.2759081784221304
178,0.03911604938271604938271604939,356,0.532742745545655
179,0.03955679012345679012345679013,358,3.10459586978835
180,0.04,360,1.8394962931377128
181,0.04044567901234567901234567901,362,-2.0355358076422103
182,0.04089382716049382716049382715,364,-3.823155609964517
183,0.04134444444444444444444444443,366,-0.25778608363450667
184,0.04179753086419753086419753085,368,-2.2640921829464533
185,0.04225308641975308641975308644,370,-0.23250337388285333
186,0.04271111111111111111111111112,372,0.47451531701542954
187,0.04317160493827160493827160495,374,-3.5959592476194078
188,0.04363456790123456790123456791,376,2.4885375522015734
189,0.0441,378,0.8419231521063805
190,0.04456790123456790123456790123,380,-2.3581604676247414
191,0.04503827160493827160493827160,382,-4.831475038652542
192,0.04551111111111111111111111110,384,1.602645989711916
193,0.04598641975308641975308641973,386,-0.25013872642486723
194,0.04646419753086419753086419755,388,-0.9540021164107938
195,0.04694444444444444444444444446,390,-1.860610563311185
196,0.04742716049382716049382716050,392,4.235326404855852
197,0.04791234567901234567901234568,394,-0.11444219661819942
198,0.0484,396,-1.6814690091291573
199,0.04889012345679012345679012345,398,-0.8746755910471399
200,0.04938271604938271604938271604,400,1.371213536530412
201,0.04987777777777777777777777776,402,-4.025372032301702
202,0.05037530864197530864197530862,404,1.4317308149516526
203,0.05087530864197530864197530866,406,0.30282582426107857
204,0.05137777777777777777777777779,408,-4.650732216652202
205,0.05188271604938271604938271606,410,0.8759559884155239
206,0.05239012345679012345679012346,412,3.2806047519862216
207,0.0529,414,1.0993819704918857
208,0.05341234567901234567901234567,416,0.954640508126397
209,0.05392716049382716049382716048,418,2.3800910377577913
210,0.05444444444444444444444444443,420,0.4588080868329206
211,0.05496419753086419753086419751,422,2.684564447278914
212,0.05548641975308641975308641977,424,-5.682194429840875
213,0.05601111111111111111111111113,426,0.08723608296701844
214,0.05653827160493827160493827162,428,0.27066904148312276
215,0.05706790123456790123456790124,430,1.4702313562683478
216,0.0576,432,-2.1970021221914378
217,0.05813456790123456790123456790,434,-0.6956111495876369
218,0.05867160493827160493827160493,436,1.1173465148818524
219,0.05921111111111111111111111109,438,0.005656028230988062
220,0.05975308641975308641975308640,440,0.930290427812484
221,0.06029753086419753086419753089,442,4.7630680178425235
222,0.06084444444444444444444444446,444,1.810316087780631
223,0.06139382716049382716049382717,446,-1.6640524042938194
224,0.06194567901234567901234567902,448,2.5420864025680934
225,0.0625,450,-0.30281501738262184
226,0.06305679012345679012345679012,452,-0.49529043329103967
227,0.06361604938271604938271604937,454,-0.1507426079436143
228,0.06417777777777777777777777776,456,-1.9263143063972952
229,0.06474197530864197530864197529,458,1.9745641317192355
230,0.06530864197530864197530864200,460,3.261897984997937
231,0.06587777777777777777777777779,462,0.9661973044594603
232,0.06644938271604938271604938273,464,1.4867006730396364
233,0.06702345679012345679012345680,466,-3.230073212997768
234,0.0676,468,1.5532369068811407
235,0.06817901234567901234567901234,470,-1.145145859579999
236,0.06876049382716049382716049382,472,-2.028688426138003
237,0.06934444444444444444444444443,474,-2.3675284853505607
238,0.06993086419753086419753086417,476,2.440576947191592
239,0.07051975308641975308641975311,478,-3.779551127029173
240,0.07111111111111111111111111113,480,-0.49095549783519793
241,0.07170493827160493827160493828,482,6.277927266216936
242,0.07230123456790123456790123457,484,-0.7237968737781326
243,0.0729,486,4.204673970989387
244,0.07350123456790123456790123456,488,2.423381846890249
245,0.07410493827160493827160493826,490,1.380544457219305
246,0.07471111111111111111111111109,492,1.7115566372867292
247,0.07531975308641975308641975306,494,1.3714243188509376
248,0.07593086419753086419753086422,496,-1.7406638788856283
249,0.07654444444444444444444444446,498,4.083924426780542
250,0.07716049382716049382716049384,500,-1.812979071949694
251,0.07777901234567901234567901235,502,0.1278897340154058
252,0.0784,504,2.6077490245093915
253,0.07902345679012345679012345678,506,1.230132117708996
254,0.07964938271604938271604938270,508,-0.4414704295303286
255,0.08027777777777777777777777776,510,-1.5583858991502197
256,0.08090864197530864197530864195,512,3.005980403355109
257,0.08154197530864197530864197533,514,-0.12527925564070716
258,0.08217777777777777777777777780,516,-0.372313635487132
259,0.08281604938271604938271604940,518,-2.3355852632872374
260,0.08345679012345679012345679013,520,4.293386311713472
261,0.0841,522,-1.2071181720833133
262,0.08474567901234567901234567901,524,2.628967128646674
263,0.08539382716049382716049382715,526,0.39626598259324786
264,0.08604444444444444444444444442,528,-3.779728543241156
265,0.08669753086419753086419753084,530,2.8322205079772833
266,0.08735308641975308641975308645,532,-0.9859862737638528
267,0.08801111111111111111111111113,534,-1.3064029617740045
268,0.08867160493827160493827160495,536,-3.7930150377860676
269,0.08933456790123456790123456791,538,0.5451144080906204
270,0.09,540,2.5352447803971745
271,0.09066790123456790123456790123,542,4.207215973678679
272,0.09133827160493827160493827159,544,1.0718116490452183
273,0.09201111111111111111111111109,546,3.321430798601995
274,0.09268641975308641975308641973,548,5.7033850328738485
275,0.09336419753086419753086419756,550,-3.665658840333641
276,0.09404444444444444444444444446,552,0.9526797452207137
277,0.09472716049382716049382716051,554,0.29218702931260454
278,0.09541234567901234567901234569,556,1.2972084240824
279,0.0961,558,5.034092257996016
280,0.09679012345679012345679012345,560,-4.923967430826421
281,0.09748271604938271604938271604,562,2.0766190328577254
282,0.09817777777777777777777777776,564,1.478751253271956
283,0.09887530864197530864197530861,566,1.0742442712488058
284,0.09957530864197530864197530867,568,0.5180626664061015
285,0.1002777777777777777777777778,570,0.03540815807228091
286,0.1009827160493827160493827161,572,3.8161416437742064
287,0.1016901234567901234567901235,574,1.2896155804930445
288,0.1024,576,-0.8018957485063605
289,0.1031123456790123456790123457,578,-3.8593706832314076
290,0.1038271604938271604938271605,580,0.4577633078589181
291,0.1045444444444444444444444444,582,2.327587763054773
292,0.1052641975308641975308641975,584,2.6019967356956273
293,0.1059864197530864197530864198,586,-0.32721035274121224
294,0.1067111111111111111111111111,588,-0.8731519509254999
295,0.1074382716049382716049382716,590,-2.270116785992983
296,0.1081679012345679012345679012,592,-2.5148909768399275
297,0.1089,594,-1.5266621881573867
298,0.1096345679012345679012345679,596,1.5974519521571695
299,0.1103716049382716049382716049,598,-2.484295157858211
300,0.1111111111111111111111111111,600,-1.6576035416608974
301,0.1118530864197530864197530864,602,2.726393861918699
302,0.1125975308641975308641975309,604,1.0120646425799065
303,0.1133444444444444444444444445,606,-1.2249742907235137
304,0.1140938271604938271604938272,608,-1.457434224342828
305,0.1148456790123456790123456790,610,-0.6664408796397091
306,0.1156,612,-1.1344107853237693
307,0.1163567901234567901234567901,614,0.8800012390468127
308,0.1171160493827160493827160494,616,1.7099493547189755
309,0.1178777777777777777777777778,618,4.378982444065039
310,0.1186419753086419753086419753,620,-1.3495150923597818
311,0.1194086419753086419753086420,622,0.8313677616786223
312,0.1201777777777777777777777778,624,0.41092451035681304
313,0.1209493827160493827160493827,626,1.5087963343544724
314,0.1217234567901234567901234568,628,1.3054801304821704
315,0.1225,630,-1.7316728371778616
316,0.1232790123456790123456790123,632,1.3568884418129428
317,0.1240604938271604938271604938,634,2.4125071749750746
318,0.1248444444444444444444444444,636,-1.2135615682830554
319,0.1256308641975308641975308642,638,-2.8894160126886157
320,0.1264197530864197530864197531,640,-2.4886967995631113
321,0.1272111111111111111111111111,642,-2.7085027768451266
322,0.1280049382716049382716049383,644,3.2107252909428863
323,0.1288012345679012345679012346,646,-2.830041721757109
324,0.1296,648,-1.682094968687361
325,0.1304012345679012345679012346,650,0.4765683113198975
326,0.1312049382716049382716049383,652,2.140096592747409
327,0.1320111111111111111111111111,654,4.488174651775448
328,0.1328197530864197530864197531,656,1.9192607791016625
329,0.1336308641975308641975308642,658,1.4321130995008005
330,0.1344444444444444444444444445,660,1.218977253556288
331,0.1352604938271604938271604938,662,-0.21480619426656208
332,0.1360790123456790123456790124,664,-2.1062305145612963
333,0.1369,666,-0.6166100522306069
334,0.1377234567901234567901234568,668,-1.4785747015462807
335,0.1385493827160493827160493827,670,2.0536879891170208
336,0.1393777777777777777777777778,672,-0.4471734756317081
337,0.1402086419753086419753086419,674,1.9455703900231602
338,0.1410419753086419753086419753,676,-1.3620889484513587
339,0.1418777777777777777777777778,678,2.2714881195874272
340,0.1427160493827160493827160494,680,1.361329327685305
341,0.1435567901234567901234567901,682,0.11005635893053914
342,0.1444,684,1.259813807518504
343,0.1452456790123456790123456790,686,-0.32186822867220166
344,0.1460938271604938271604938271,688,-0.33635055740283815
345,0.1469444444444444444444444444,690,0.39087771920022163
346,0.1477975308641975308641975308,692,-1.4703613038237622
347,0.1486530864197530864197530865,694,1.9054169377141965
348,0.1495111111111111111111111111,696,0.5827521443163521
349,0.1503716049382716049382716050,698,3.923435235400561
350,0.1512345679012345679012345679,700,2.689555998189853
351,0.1521,702,0.0005648504400103567
352,0.1529679012345679012345679012,704,-1.7826058595436005
353,0.1538382716049382716049382716,706,-1.5370326467694542
354,0.1547111111111111111111111111,708,0.16478431526294451
