,Mass (amu),Time (microseconds),Amplitude
0,0,0,0.5193726841473196
1,0.000001234567901234567901234567901,2,-0.04035486696322556
2,0.000004938271604938271604938271604,4,-3.576088996203171
3,0.00001111111111111111111111111111,6,3.600246930498168
4,0.00001975308641975308641975308642,8,2.2708015608056478
5,0.00003086419753086419753086419754,10,-1.5922029867660836
6,0.00004444444444444444444444444445,12,-2.8850790283554466
7,0.00006049382716049382716049382716,14,-0.5666638574808265
8,0.00007901234567901234567901234568,16,2.8839663878061983
9,0.0001,18,-2.5776180889332903
10,0.0001234567901234567901234567901,20,-1.2141532979417944
11,0.0001493827160493827160493827160,22,-2.895832834274073
12,0.0001777777777777777777777777777,24,-1.3690528273979656
13,0.0002086419753086419753086419752,26,1.4015902494663601
14,0.0002419753086419753086419753088,28,1.3152455531310692
15,0.0002777777777777777777777777779,30,0.8525340805231402
16,0.0003160493827160493827160493828,32,0.44379213255861955
17,0.0003567901234567901234567901235,34,6.241242442071438
18,0.0004,36,-1.7628556032162788
19,0.0004456790123456790123456790123,38,-0.6881510157173767
20,0.0004938271604938271604938271604,40,-2.650738352239839
21,0.0005444444444444444444444444443,42,0.24850609469399107
22,0.0005975308641975308641975308640,44,-0.09519028059564785
23,0.0006530864197530864197530864200,46,-2.782464621904974
24,0.0007111111111111111111111111113,48,-2.843142048795745
25,0.0007716049382716049382716049384,50,3.9496695050395263
26,0.0008345679012345679012345679013,52,0.9393793698533486
27,0.0009,54,-1.0551640504528477
28,0.0009679012345679012345679012345,56,1.1017591364699926
29,0.001038271604938271604938271605,58,-0.4513144072519059
30,0.001111111111111111111111111111,60,3.429247991848432
31,0.001186419753086419753086419753,62,3.114134809563176
32,0.001264197530864197530864197531,64,6.702067906955679
33,0.001344444444444444444444444445,66,-6.908139331085092
34,0.001427160493827160493827160494,68,-1.758539131811251
35,0.001512345679012345679012345679,70,1.3067282101511641
36,0.0016,72,-0.26023415779223963
37,0.001690123456790123456790123457,74,0.11825872312403457
38,0.001782716049382716049382716049,76,-2.1898104672351923
39,0.001877777777777777777777777777,78,-1.5167323712685699
40,0.001975308641975308641975308642,80,1.554981152122115
41,0.002075308641975308641975308642,82,1.216080608961536
42,0.002177777777777777777777777778,84,-2.71747751676062
43,0.002282716049382716049382716050,86,-0.15863735588908873
44,0.002390123456790123456790123457,88,-0.2395628072019059
45,0.0025,90,-4.238745338142668
46,0.002612345679012345679012345679,92,-2.0866300697486406
47,0.002727160493827160493827160494,94,0.6516101308220141
48,0.002844444444444444444444444444,96,4.7008951908630925
49,0.002964197530864197530864197530,98,2.4189296342213935
50,0.003086419753086419753086419754,100,1.4661359444297337
51,0.003211111111111111111111111111,102,-0.16553465583369092
52,0.003338271604938271604938271605,104,0.2110068680974488
53,0.003467901234567901234567901235,106,-0.3083351223159121
54,0.0036,108,1.2678465596230686
55,0.003734567901234567901234567901,110,-0.4325941219138845
56,0.003871604938271604938271604938,112,-2.2371060340895856
57,0.004011111111111111111111111111,114,1.9144923159082674
58,0.004153086419753086419753086419,116,2.190432590699306
59,0.004297530864197530864197530865,118,0.9051865553203057
60,0.004444444444444444444444444445,120,1.449014074313935
61,0.004593827160493827160493827161,122,1.1880354270466529
62,0.004745679012345679012345679012,124,-1.776078989186358
63,0.0049,126,-3.3663300218913332
64,0.005056790123456790123456790123,128,2.855095986067948
65,0.005216049382716049382716049382,130,4.699372454051251
66,0.005377777777777777777777777777,132,-1.6445834501896672
67,0.005541975308641975308641975308,134,-1.9533004215119485
68,0.005708641975308641975308641976,136,-2.7779810262447486
69,0.005877777777777777777777777778,138,1.8789112735104208
70,0.006049382716049382716049382716,140,-1.4911224808881607
71,0.006223456790123456790123456790,142,-3.869081811650799
72,0.0064,144,0.5507982735057426
73,0.006579012345679012345679012345,146,-3.6252863176037353
74,0.006760493827160493827160493827,148,-1.8522005440604736
75,0.006944444444444444444444444444,150,-0.3908243048182772
76,0.007130864197530864197530864197,152,1.6035612084915973
77,0.007319753086419753086419753087,154,2.150442721201827
78,0.007511111111111111111111111112,156,-0.07589007439139457
79,0.007704938271604938271604938272,158,0.04201148625737608
80,0.007901234567901234567901234568,160,3.2054508975858247
81,0.0081,162,-1.5902288681005645
82,0.008301234567901234567901234568,164,4.052316307384825
83,0.008504938271604938271604938271,166,-1.6351938213425787
84,0.008711111111111111111111111110,168,0.9396142677180234
85,0.008919753086419753086419753086,170,-1.3375442992381674
86,0.009130864197530864197530864198,172,-0.4459238290092442
87,0.009344444444444444444444444445,174,4.6249839379806765
88,0.009560493827160493827160493828,176,-3.1583838854152324
89,0.009779012345679012345679012346,178,-1.5267829679949314
90,0.01,180,2.685187153196667
91,0.01022345679012345679012345679,182,1.520615877098055
92,0.01044938271604938271604938271,184,-0.5248663290096482
93,0.01067777777777777777777777777,186,3.930309414339893
94,0.01090864197530864197530864197,188,-0.7193752923743356
95,0.01114197530864197530864197532,190,-3.1202467986186737
96,0.01137777777777777777777777778,192,2.3360453871538356
97,0.01161604938271604938271604939,194,-1.203948037764357
98,0.01185679012345679012345679013,196,0.9887709440315331
99,0.0121,198,-1.5028912751655785
100,0.01234567901234567901234567901,200,-0.621899978767266
101,0.01259382716049382716049382716,202,-0.5681100460908578
102,0.01284444444444444444444444444,204,4.050863944217876
103,0.01309753086419753086419753085,206,-1.585983073635275
104,0.01335308641975308641975308643,208,-1.3956327774897002
105,0.01361111111111111111111111112,210,1.3608167948090413
106,0.01387160493827160493827160494,212,2.3087600977790737
107,0.01413456790123456790123456790,214,1.1194830522183683
108,0.0144,216,-0.9403552443739044
109,0.01466790123456790123456790123,218,1.6765887175734504
110,0.01493827160493827160493827160,220,3.4772539646542704
111,0.01521111111111111111111111110,222,0.21285313022051144
112,0.01548641975308641975308641974,224,-0.20250269287392367
113,0.01576419753086419753086419754,226,1.391615493137797
114,0.01604444444444444444444444445,228,-3.8506845326712686
115,0.01632716049382716049382716050,230,-0.5132614058498559
116,0.01661234567901234567901234568,232,-1.0630847598457216
117,0.0169,234,-2.011075296990778
118,0.01719012345679012345679012345,236,0.37806288621338313
119,0.01748271604938271604938271604,238,-0.7170291287531894
120,0.01777777777777777777777777777,240,0.7569475616185386
121,0.01807530864197530864197530863,242,0.4856516210250395
122,0.01837530864197530864197530865,244,1.9972151428008809
123,0.01867777777777777777777777779,246,1.7600997837709917
124,0.01898271604938271604938271606,248,5.9499494003553295
125,0.01929012345679012345679012346,250,0.31325338345203796
126,0.0196,252,-1.7640663172788034
127,0.01991234567901234567901234568,254,1.2144828450192378
128,0.02022716049382716049382716049,256,-0.8700961481326501
129,0.02054444444444444444444444443,258,0.27563865628891243
130,0.02086419753086419753086419752,260,3.2708032729297685
131,0.02118641975308641975308641977,262,0.6695647475575872
132,0.02151111111111111111111111112,264,-1.686013209750138
133,0.02183827160493827160493827161,266,1.4061919747944784
134,0.02216790123456790123456790124,268,-1.9040477662276198
135,0.0225,270,1.7136880255128506
136,0.02283456790123456790123456790,272,-1.9119379517056971
137,0.02317160493827160493827160493,274,-5.9651641886534765
138,0.02351111111111111111111111110,276,1.11966839283853
139,0.02385308641975308641975308641,278,-2.4055929847218493
140,0.02419753086419753086419753088,280,3.11962834815109
141,0.02454444444444444444444444445,282,-1.7413851471841288
142,0.02489382716049382716049382717,284,-3.8797324193223943
143,0.02524567901234567901234567902,286,3.971425661876718
144,0.0256,288,-0.34888099809325424
145,0.02595679012345679012345679012,290,-1.2726646797589956
146,0.02631604938271604938271604938,292,-2.410453179832228
147,0.02667777777777777777777777777,294,-1.1890012196274107
148,0.02704197530864197530864197529,296,-1.5113580031619624
149,0.02740864197530864197530864199,298,-2.8579767052600866
150,0.02777777777777777777777777779,300,0.21427304697383823
151,0.02814938271604938271604938272,302,0.08235328956846345
152,0.02852345679012345679012345679,304,1.0210970101317767
153,0.0289,306,0.30246363778181273
154,0.02927901234567901234567901234,308,-1.3924232007286887
155,0.02966049382716049382716049382,310,0.3028080950936106
156,0.03004444444444444444444444443,312,2.9786500681265373
157,0.03043086419753086419753086418,314,-0.8931542914751838
158,0.03081975308641975308641975310,316,1.0983523272662365
159,0.03121111111111111111111111112,318,-2.796075875771212
160,0.03160493827160493827160493828,320,-1.6868768692279748
161,0.03200123456790123456790123457,322,0.25542635401029223
162,0.0324,324,-2.48451273507751
163,0.03280123456790123456790123456,326,1.2627453683439889
164,0.03320493827160493827160493826,328,-2.6457893697344677
165,0.03361111111111111111111111110,330,1.0532859045308602
166,0.03401975308641975308641975307,332,-3.6282466301024345
167,0.03443086419753086419753086421,334,-0.8802997555136467
168,0.03484444444444444444444444446,336,-2.3134653644211673
169,0.03526049382716049382716049384,338,1.0045513291481927
170,0.03567901234567901234567901235,340,4.482350712337653
171,0.0361,342,3.173502291295055
172,0.03652345679012345679012345679,344,-3.1312067537093995
173,0.03694938271604938271604938271,346,0.424367248911116
174,0.03737777777777777777777777776,348,1.7958985547876694
175,0.03780864197530864197530864196,350,-0.6387776481234274
176,0.03824197530864197530864197533,352,1.33108562144673
177,0.03867777777777777777777777779,354,1.6820158999856631
178,0.03911604938271604938271604939,356,2.8114284738653685
179,0.03955679012345679012345679013,358,2.8360383467757018
180,0.04,360,-2.7553253041310435
181,0.04044567901234567901234567901,362,-2.097930419095637
182,0.04089382716049382716049382715,364,0.7395207880262054
183,0.04134444444444444444444444443,366,-2.1777524778412913
184,0.04179753086419753086419753085,368,0.6460964814690331
185,0.04225308641975308641975308644,370,1.0190256585026312
186,0.04271111111111111111111111112,372,2.8724283424895845
187,0.04317160493827160493827160495,374,-0.15665484357163995
188,0.04363456790123456790123456791,376,-1.0131482667454565
189,0.0441,378,-2.233962523385567
190,0.04456790123456790123456790123,380,-3.222041123525779
191,0.04503827160493827160493827160,382,5.434332886023728
192,0.04551111111111111111111111110,384,1.0058101598715619
193,0.04598641975308641975308641973,386,-0.5059626428278985
194,0.04646419753086419753086419755,388,1.6893527560446304
195,0.04694444444444444444444444446,390,3.2113217415868065
196,0.04742716049382716049382716050,392,-3.71959433031777
197,0.04791234567901234567901234568,394,0.7465683422633107
198,0.0484,396,-2.481957054066656
199,0.04889012345679012345679012345,398,-1.3406971527358282
200,0.04938271604938271604938271604,400,1.2585907668443785
201,0.04987777777777777777777777776,402,2.9918785334846096
202,0.05037530864197530864197530862,404,3.0829687568473942
203,0.05087530864197530864197530866,406,-1.492375678065507
204,0.05137777777777777777777777779,408,-2.3871529826835625
205,0.05188271604938271604938271606,410,-1.9959294161509937
206,0.05239012345679012345679012346,412,-2.9083703880222225
207,0.0529,414,-2.062562030902005
208,0.05341234567901234567901234567,416,-0.05829524223226466
209,0.05392716049382716049382716048,418,-3.2183885417878777
210,0.05444444444444444444444444443,420,0.4331732827573034
211,0.05496419753086419753086419751,422,-2.5471561885552734
212,0.05548641975308641975308641977,424,3.3309145958517643
213,0.05601111111111111111111111113,426,-0.13761539507917225
214,0.05653827160493827160493827162,428,1.3113892627461825
215,0.05706790123456790123456790124,430,1.3389143924194116
216,0.0576,432,-0.9756139234484085
217,0.05813456790123456790123456790,434,1.0535542868254892
218,0.05867160493827160493827160493,436,-0.030976122645214512
219,0.05921111111111111111111111109,438,-2.587817549153559
220,0.05975308641975308641975308640,440,1.3002324426868965
221,0.06029753086419753086419753089,442,0.37501478698691304
222,0.06084444444444444444444444446,444,-4.56322897915648
223,0.06139382716049382716049382717,446,3.7693248662466647
224,0.06194567901234567901234567902,448,-2.6947856473063716
225,0.0625,450,1.4533583981145277
226,0.06305679012345679012345679012,452,-1.4842301793113026
227,0.06361604938271604938271604937,454,-3.374252594853188
228,0.06417777777777777777777777776,456,0.16535036435048753
229,0.06474197530864197530864197529,458,1.7535634894434047
230,0.06530864197530864197530864200,460,0.17159314505741177
231,0.06587777777777777777777777779,462,1.9660600756112525
232,0.06644938271604938271604938273,464,0.579416795884
233,0.06702345679012345679012345680,466,-2.5238941397430295
234,0.0676,468,1.2339737655780374
235,0.06817901234567901234567901234,470,1.9299023233039259
236,0.06876049382716049382716049382,472,-0.5410868273220791
237,0.06934444444444444444444444443,474,6.197843847911899
238,0.06993086419753086419753086417,476,0.33811714381403685
239,0.07051975308641975308641975311,478,0.09802874446238778
240,0.07111111111111111111111111113,480,0.30994874231064834
241,0.07170493827160493827160493828,482,2.0566891588060177
242,0.07230123456790123456790123457,484,-1.196371141925172
243,0.0729,486,-2.726323176870315
244,0.07350123456790123456790123456,488,-0.6963757618439801
245,0.07410493827160493827160493826,490,1.9830274484835495
246,0.07471111111111111111111111109,492,-3.1365166844092265
247,0.07531975308641975308641975306,494,1.4911774188600087
248,0.07593086419753086419753086422,496,4.453623857244218
249,0.07654444444444444444444444446,498,2.993886480720543
250,0.07716049382716049382716049384,500,-4.19050279800933
251,0.07777901234567901234567901235,502,-0.34467918733342695
252,0.0784,504,-0.2308724873922597
253,0.07902345679012345679012345678,506,4.5747486590277875
254,0.07964938271604938271604938270,508,2.0326061029805307
255,0.08027777777777777777777777776,510,1.9946925336745673
256,0.08090864197530864197530864195,512,1.403237603811363
257,0.08154197530864197530864197533,514,-3.5251226323365588
258,0.08217777777777777777777777780,516,-0.782923340169833
259,0.08281604938271604938271604940,518,0.2266885294237165
260,0.08345679012345679012345679013,520,4.50291970354445
261,0.0841,522,0.1921803739345262
262,0.08474567901234567901234567901,524,0.14930157619945755
263,0.08539382716049382716049382715,526,1.9967978986916703
264,0.08604444444444444444444444442,528,0.9068150089801328
265,0.08669753086419753086419753084,530,-0.3814003547066705
266,0.08735308641975308641975308645,532,0.6657660257209395
267,0.08801111111111111111111111113,534,-0.3309713812097728
268,0.08867160493827160493827160495,536,4.1047362303321755
269,0.08933456790123456790123456791,538,-5.478660933629981
270,0.09,540,-0.594092822989916
271,0.09066790123456790123456790123,542,3.4611082423372617
272,0.09133827160493827160493827159,544,-1.224182029188466
273,0.09201111111111111111111111109,546,1.9611731066925744
274,0.09268641975308641975308641973,548,-0.20279221652480955
275,0.09336419753086419753086419756,550,0.9266304186634376
276,0.09404444444444444444444444446,552,4.90137419401501
277,0.09472716049382716049382716051,554,1.2960093784741713
278,0.09541234567901234567901234569,556,0.5293751490793784
279,0.0961,558,-0.4808647502316421
280,0.09679012345679012345679012345,560,-1.112968550239721
281,0.09748271604938271604938271604,562,0.9294578629410136
282,0.09817777777777777777777777776,564,-1.785475712817617
283,0.09887530864197530864197530861,566,1.3604125000688543
284,0.09957530864197530864197530867,568,1.7164221003894482
285,0.1002777777777777777777777778,570,-2.099354335492257
286,0.1009827160493827160493827161,572,-2.3781347146407525
287,0.1016901234567901234567901235,574,0.45419378891366213
288,0.1024,576,-1.4673888597902085
289,0.1031123456790123456790123457,578,-1.3936904260925962
290,0.1038271604938271604938271605,580,-0.9377730047650369
291,0.1045444444444444444444444444,582,-1.2748860349786564
292,0.1052641975308641975308641975,584,4.788957477555143
293,0.1059864197530864197530864198,586,-0.3876790455666722
294,0.1067111111111111111111111111,588,1.8678585781442953
295,0.1074382716049382716049382716,590,-0.655970990076095
296,0.1081679012345679012345679012,592,5.358950812501826
297,0.1089,594,-0.922147239589774
298,0.1096345679012345679012345679,596,-2.2716436013178143
299,0.1103716049382716049382716049,598,-0.039843372819138724
300,0.1111111111111111111111111111,600,8.2419093798345
301,0.1118530864197530864197530864,602,0.8123036687073962
302,0.1125975308641975308641975309,604,-1.606792433458172
303,0.1133444444444444444444444445,606,-2.160163133350759
304,0.1140938271604938271604938272,608,-0.013399002133536207
305,0.1148456790123456790123456790,610,-0.29139884223727297
306,0.1156,612,0.177648240496029
307,0.1163567901234567901234567901,614,5.273296173462746
308,0.1171160493827160493827160494,616,-1.9775622528412975
309,0.1178777777777777777777777778,618,-0.5962711672629734
310,0.1186419753086419753086419753,620,1.1090250138665996
311,0.1194086419753086419753086420,622,-3.8979333310691753
312,0.1201777777777777777777777778,624,-3.204003088711097
313,0.1209493827160493827160493827,626,-1.4815084839086157
314,0.1217234567901234567901234568,628,-2.8923269150344773
315,0.1225,630,2.7321704762516665
316,0.1232790123456790123456790123,632,2.482939367420817
317,0.1240604938271604938271604938,634,-0.3881484924721045
318,0.1248444444444444444444444444,636,1.5320319018436501
319,0.1256308641975308641975308642,638,-0.17346109423006942
320,0.1264197530864197530864197531,640,0.6673775915626512
321,0.1272111111111111111111111111,642,-1.2819335476479634
322,0.1280049382716049382716049383,644,-1.2878757073698432
323,0.1288012345679012345679012346,646,6.041619364189714
324,0.1296,648,1.1360807865397025
325,0.1304012345679012345679012346,650,2.5792243705316324
326,0.1312049382716049382716049383,652,2.548250523549615
327,0.1320111111111111111111111111,654,-1.4972150092617635
328,0.1328197530864197530864197531,656,1.28901469626416
329,0.1336308641975308641975308642,658,-1.6661135562939935
330,0.1344444444444444444444444445,660,0.6814011619629556
331,0.1352604938271604938271604938,662,-2.7240611345467585
332,0.1360790123456790123456790124,664,1.8329990507418457
333,0.1369,666,-1.9448779103466052
334,0.1377234567901234567901234568,668,-2.0273857074372197
335,0.1385493827160493827160493827,670,-1.3682366575068714
336,0.1393777777777777777777777778,672,-1.7470577925254946
337,0.1402086419753086419753086419,674,-0.2963558790667965
338,0.1410419753086419753086419753,676,-2.3770450391476388
339,0.1418777777777777777777777778,678,0.8709050301600079
340,0.1427160493827160493827160494,680,-0.3744139462265177
341,0.1435567901234567901234567901,682,0.06545019213636886
342,0.1444,684,-4.02956447146107
343,0.1452456790123456790123456790,686,0.2681555858456818
344,0.1460938271604938271604938271,688,-5.271789732654839
345,0.1469444444444444444444444444,690,-4.951961852190877
346,0.1477975308641975308641975308,692,-4.116542906858571
347,0.1486530864197530864197530865,694,0.13203427271349602
348,0.1495111111111111111111111111,696,-2.058581409080817
349,0.1503716049382716049382716050,698,-1.410525696938561
350,0.1512345679012345679012345679,700,-2.531284932417263
351,0.1521,702,-2.691822950067054
352,0.1529679012345679012345679012,704,0.7646822945387267
353,0.1538382716049382716049382716,706,-1.536048961219156
354,0.1547111111111111111111111111,708,-0.9718355030325657
