,Mass (amu),Time (microseconds),Amplitude
0,0,0,1.1621328961584125
1,0.000001234567901234567901234567901,2,0.6354498011691068
2,0.000004938271604938271604938271604,4,-1.4478135074876577
3,0.00001111111111111111111111111111,6,-0.3643305706963911
4,0.00001975308641975308641975308642,8,4.050355066520781
5,0.00003086419753086419753086419754,10,-2.1402615547365254
6,0.00004444444444444444444444444445,12,3.54314022886673
7,0.00006049382716049382716049382716,14,-0.38062846513567045
8,0.00007901234567901234567901234568,16,-0.8366798365825207
9,0.0001,18,-0.5349167673376133
10,0.0001234567901234567901234567901,20,0.6476193749018337
11,0.0001493827160493827160493827160,22,1.2245363972464245
12,0.0001777777777777777777777777777,24,0.3443021349959242
13,0.0002086419753086419753086419752,26,4.570428882402336
14,0.0002419753086419753086419753088,28,-2.6929916715294455
15,0.0002777777777777777777777777779,30,-1.7069622594284561
16,0.0003160493827160493827160493828,32,3.997703817493605
17,0.0003567901234567901234567901235,34,0.6081894299450105
18,0.0004,36,-0.4024140686516347
19,0.0004456790123456790123456790123,38,-2.6990228887809122
20,0.0004938271604938271604938271604,40,-1.0693060589185017
21,0.0005444444444444444444444444443,42,0.8611335076743669
22,0.0005975308641975308641975308640,44,-2.3952306464779363
23,0.0006530864197530864197530864200,46,-2.2521023632503283
24,0.0007111111111111111111111111113,48,-1.9568075293827552
25,0.0007716049382716049382716049384,50,-3.0468099224306333
26,0.0008345679012345679012345679013,52,-1.672635562181227
27,0.0009,54,1.317316848725299
28,0.0009679012345679012345679012345,56,-4.875832392846234
29,0.001038271604938271604938271605,58,-0.34967854199892423
30,0.001111111111111111111111111111,60,5.057068490309989
31,0.001186419753086419753086419753,62,-0.161669642745473
32,0.001264197530864197530864197531,64,0.7026755547290083
33,0.001344444444444444444444444445,66,1.2230327271869372
34,0.001427160493827160493827160494,68,-0.06535199704291021
35,0.001512345679012345679012345679,70,2.82151349172106
36,0.0016,72,3.088909247586948
37,0.001690123456790123456790123457,74,-0.3149331144931783
38,0.001782716049382716049382716049,76,-2.8038479367022666
39,0.001877777777777777777777777777,78,1.6635793995653922
40,0.001975308641975308641975308642,80,3.433949234355162
41,0.002075308641975308641975308642,82,-0.7617489331814329
42,0.002177777777777777777777777778,84,2.916505808664459
43,0.002282716049382716049382716050,86,-0.723149603096934
44,0.002390123456790123456790123457,88,3.2904939001208624
45,0.0025,90,0.611864244535964
46,0.002612345679012345679012345679,92,-4.556100019682765
47,0.002727160493827160493827160494,94,-1.0169125835535637
48,0.002844444444444444444444444444,96,4.2227312596012965
49,0.002964197530864197530864197530,98,-2.263835406740061
50,0.003086419753086419753086419754,100,0.6750392706266964
51,0.003211111111111111111111111111,102,0.3707402416405381
52,0.003338271604938271604938271605,104,1.6957559015080625
53,0.003467901234567901234567901235,106,-1.7610900587311256
54,0.0036,108,-1.5536972187699793
55,0.003734567901234567901234567901,110,-1.991156062082946
56,0.003871604938271604938271604938,112,1.6867083993387522
57,0.004011111111111111111111111111,114,2.3149213127203003
58,0.004153086419753086419753086419,116,1.7583169893656885
59,0.004297530864197530864197530865,118,0.45554747464317497
60,0.004444444444444444444444444445,120,-0.3943216101559109
61,0.004593827160493827160493827161,122,0.9059557930219948
62,0.004745679012345679012345679012,124,-1.3753792971894345
63,0.0049,126,1.1486566810746643
64,0.005056790123456790123456790123,128,-4.0037146049302175
65,0.005216049382716049382716049382,130,-3.661536016282859
66,0.005377777777777777777777777777,132,0.27969434289632455
67,0.005541975308641975308641975308,134,1.3775157445873498
68,0.005708641975308641975308641976,136,-1.3686908802017215
69,0.005877777777777777777777777778,138,0.39621445011346706
70,0.006049382716049382716049382716,140,1.1753878612169844
71,0.006223456790123456790123456790,142,2.919776839157633
72,0.0064,144,-1.5182201836348062
73,0.006579012345679012345679012345,146,-0.06282764103768447
74,0.006760493827160493827160493827,148,0.3473015735967415
75,0.006944444444444444444444444444,150,-0.5574857866407835
76,0.007130864197530864197530864197,152,-4.6003286489834245
77,0.007319753086419753086419753087,154,-1.6844791460000719
78,0.007511111111111111111111111112,156,0.16323865483574612
79,0.007704938271604938271604938272,158,1.1831548847136382
80,0.007901234567901234567901234568,160,-0.9455156898284439
81,0.0081,162,-4.207894691010492
82,0.008301234567901234567901234568,164,2.834624039080049
83,0.008504938271604938271604938271,166,-2.7082726711407332
84,0.008711111111111111111111111110,168,0.8167666720153145
85,0.008919753086419753086419753086,170,3.4250924889686694
86,0.009130864197530864197530864198,172,-1.2777152771322426
87,0.009344444444444444444444444445,174,-1.4815540569971544
88,0.009560493827160493827160493828,176,3.073953651890745
89,0.009779012345679012345679012346,178,0.12915594692185
90,0.01,180,-1.7245599990877991
91,0.01022345679012345679012345679,182,3.253060281662909
92,0.01044938271604938271604938271,184,-0.9453830088193587
93,0.01067777777777777777777777777,186,-0.253338461008853
94,0.01090864197530864197530864197,188,1.058885769634009
95,0.01114197530864197530864197532,190,-0.24425011877860045
96,0.01137777777777777777777777778,192,-6.236175369716668
97,0.01161604938271604938271604939,194,1.866932868258404
98,0.01185679012345679012345679013,196,1.4055743298194037
99,0.0121,198,1.6064832223316206
100,0.01234567901234567901234567901,200,1.9275147440942573
101,0.01259382716049382716049382716,202,1.8389962163503855
102,0.01284444444444444444444444444,204,0.4297325310993676
103,0.01309753086419753086419753085,206,3.106541033757854
104,0.01335308641975308641975308643,208,1.6896164721617983
105,0.01361111111111111111111111112,210,-1.7103046433521867
106,0.01387160493827160493827160494,212,1.6790983921433122
107,0.01413456790123456790123456790,214,-6.024123290942825
108,0.0144,216,-0.5974765375853665
109,0.01466790123456790123456790123,218,-0.5539949597240101
110,0.01493827160493827160493827160,220,-0.26496474502054057
111,0.01521111111111111111111111110,222,4.34458443896346
112,0.01548641975308641975308641974,224,1.1605004198871522
113,0.01576419753086419753086419754,226,-1.4688286467840177
114,0.01604444444444444444444444445,228,1.425399815848996
115,0.01632716049382716049382716050,230,0.03682718738474018
116,0.01661234567901234567901234568,232,0.5091594864970596
117,0.0169,234,1.094379321485838
118,0.01719012345679012345679012345,236,1.9517363604358882
119,0.01748271604938271604938271604,238,2.295750908996309
120,0.01777777777777777777777777777,240,-2.015474596045093
121,0.01807530864197530864197530863,242,2.3666583928907237
122,0.01837530864197530864197530865,244,1.937845578506859
123,0.01867777777777777777777777779,246,-4.747748483576499
124,0.01898271604938271604938271606,248,3.7234875440694384
125,0.01929012345679012345679012346,250,-1.9929021352838008
126,0.0196,252,-0.584946899468398
127,0.01991234567901234567901234568,254,3.7379380529822677
128,0.02022716049382716049382716049,256,0.014040550490523409
129,0.02054444444444444444444444443,258,0.39490552207753016
130,0.02086419753086419753086419752,260,-0.6575558126058505
131,0.02118641975308641975308641977,262,-4.859211209459989
132,0.02151111111111111111111111112,264,2.7039025773619407
133,0.02183827160493827160493827161,266,-0.17602198494316407
134,0.02216790123456790123456790124,268,1.7651687613083498
135,0.0225,270,0.7307550955644982
136,0.02283456790123456790123456790,272,-1.1428770819420069
137,0.02317160493827160493827160493,274,-0.13822894051905227
138,0.02351111111111111111111111110,276,0.11298151704377439
139,0.02385308641975308641975308641,278,-3.549517684454007
140,0.02419753086419753086419753088,280,0.47096405525903196
141,0.02454444444444444444444444445,282,3.840792892565426
142,0.02489382716049382716049382717,284,2.455653062303142
143,0.02524567901234567901234567902,286,-3.3331110397102424
144,0.0256,288,2.938653221942433
145,0.02595679012345679012345679012,290,1.5494927374663516
146,0.02631604938271604938271604938,292,4.418601745005522
147,0.02667777777777777777777777777,294,3.5189177647887973
148,0.02704197530864197530864197529,296,0.6510591335307945
149,0.02740864197530864197530864199,298,-0.18142966884647216
150,0.02777777777777777777777777779,300,-0.9283648578835874
151,0.02814938271604938271604938272,302,1.6180291584206168
152,0.02852345679012345679012345679,304,-4.53763439420881
153,0.0289,306,-1.9352398688280668
154,0.02927901234567901234567901234,308,1.0210165145325925
155,0.02966049382716049382716049382,310,-3.4547554796661286
156,0.03004444444444444444444444443,312,-2.4609825685501683
157,0.03043086419753086419753086418,314,3.6534938205702154
158,0.03081975308641975308641975310,316,-2.7906804353304144
159,0.03121111111111111111111111112,318,0.12718424976061718
160,0.03160493827160493827160493828,320,-0.24586786272041306
161,0.03200123456790123456790123457,322,0.9055466096947674
162,0.0324,324,0.7575333677248093
163,0.03280123456790123456790123456,326,-0.6170927425642697
164,0.03320493827160493827160493826,328,-4.528144742285315
165,0.03361111111111111111111111110,330,4.630561154692902
166,0.03401975308641975308641975307,332,2.3061876572794047
167,0.03443086419753086419753086421,334,-5.538766412214715
168,0.03484444444444444444444444446,336,3.369757713675207
169,0.03526049382716049382716049384,338,3.813435903735516
170,0.03567901234567901234567901235,340,-5.474931781911445
171,0.0361,342,2.51815435944829
172,0.03652345679012345679012345679,344,-0.9597335112625259
173,0.03694938271604938271604938271,346,3.3584186571246697
174,0.03737777777777777777777777776,348,0.266111987447075
175,0.03780864197530864197530864196,350,-4.400415043184496
176,0.03824197530864197530864197533,352,-0.7750427499270786
177,0.03867777777777777777777777779,354,-0.46648331550024685
178,0.03911604938271604938271604939,356,1.4638817560817259
179,0.03955679012345679012345679013,358,2.4124697052716755
180,0.04,360,-1.0536866386359822
181,0.04044567901234567901234567901,362,-0.3832156230826207
182,0.04089382716049382716049382715,364,-0.5135375421744639
183,0.04134444444444444444444444443,366,2.8582829964431444
184,0.04179753086419753086419753085,368,-3.16534111771477
185,0.04225308641975308641975308644,370,1.9537768126648098
186,0.04271111111111111111111111112,372,4.253982698043621
187,0.04317160493827160493827160495,374,-0.19482842650990273
188,0.04363456790123456790123456791,376,2.2062681390038104
189,0.0441,378,-0.6611737595356783
190,0.04456790123456790123456790123,380,-1.920749149091537
191,0.04503827160493827160493827160,382,0.6408528708117066
192,0.04551111111111111111111111110,384,1.886316160740209
193,0.04598641975308641975308641973,386,0.08900251442789192
194,0.04646419753086419753086419755,388,-0.8840282051976935
195,0.04694444444444444444444444446,390,2.993574935054344
196,0.04742716049382716049382716050,392,0.6502151275761943
197,0.04791234567901234567901234568,394,-0.7168377969451526
198,0.0484,396,2.776334304598225
199,0.04889012345679012345679012345,398,1.2225330236679082
200,0.04938271604938271604938271604,400,-1.9091571097946096
201,0.04987777777777777777777777776,402,1.4893672782147986
202,0.05037530864197530864197530862,404,1.3892039167907861
203,0.05087530864197530864197530866,406,-0.46730474493690466
204,0.05137777777777777777777777779,408,-1.670882860739384
205,0.05188271604938271604938271606,410,3.1544271994521926
206,0.05239012345679012345679012346,412,-3.6635002235930205
207,0.0529,414,-1.0966445404389595
208,0.05341234567901234567901234567,416,0.1557198339935725
209,0.05392716049382716049382716048,418,-3.160866185262088
210,0.05444444444444444444444444443,420,-2.7246884619698277
211,0.05496419753086419753086419751,422,-2.2710227665338563
212,0.05548641975308641975308641977,424,3.7358931856271576
213,0.05601111111111111111111111113,426,0.4337325001763499
214,0.05653827160493827160493827162,428,1.3648251011205605
215,0.05706790123456790123456790124,430,-2.5137961728458977
216,0.0576,432,-2.4099570086003106
217,0.05813456790123456790123456790,434,1.5116198336989641
218,0.05867160493827160493827160493,436,-2.396561187327285
219,0.05921111111111111111111111109,438,-2.3087108767182896
220,0.05975308641975308641975308640,440,-0.9756587145773271
221,0.06029753086419753086419753089,442,-2.7568913051954835
222,0.06084444444444444444444444446,444,-1.2468663418728012
223,0.06139382716049382716049382717,446,1.7842461310171578
224,0.06194567901234567901234567902,448,-2.2894800809498634
225,0.0625,450,-2.081197040606709
226,0.06305679012345679012345679012,452,0.2384242232428745
227,0.06361604938271604938271604937,454,-1.388513998793686
228,0.06417777777777777777777777776,456,-1.0158005944496753
229,0.06474197530864197530864197529,458,1.8271256908829117
230,0.06530864197530864197530864200,460,2.0863696899482753
231,0.06587777777777777777777777779,462,-1.6841848486303783
232,0.06644938271604938271604938273,464,-1.496567081552036
233,0.06702345679012345679012345680,466,-1.8333128398112726
234,0.0676,468,0.12117235138171267
235,0.06817901234567901234567901234,470,2.223271633684453
236,0.06876049382716049382716049382,472,-0.5453698769347786
237,0.06934444444444444444444444443,474,2.1498661729407065
238,0.06993086419753086419753086417,476,-1.4549857460631492
239,0.07051975308641975308641975311,478,3.218751644164314
240,0.07111111111111111111111111113,480,1.3444219193779992
241,0.07170493827160493827160493828,482,0.632031077504002
242,0.07230123456790123456790123457,484,4.309019430608906
243,0.0729,486,-4.610130942177229
244,0.07350123456790123456790123456,488,0.11500002907235944
245,0.07410493827160493827160493826,490,1.5199692179682767
246,0.07471111111111111111111111109,492,-2.699044495315016
247,0.07531975308641975308641975306,494,-1.9306643490188464
248,0.07593086419753086419753086422,496,2.421603771449872
249,0.07654444444444444444444444446,498,-0.33278744071544647
250,0.07716049382716049382716049384,500,-2.4988862856267655
251,0.07777901234567901234567901235,502,1.788660160932847
252,0.0784,504,-0.24097888754840638
253,0.07902345679012345679012345678,506,1.6328476467798578
254,0.07964938271604938271604938270,508,0.2587549513406302
255,0.08027777777777777777777777776,510,4.624605390952206
256,0.08090864197530864197530864195,512,1.5404444510867248
257,0.08154197530864197530864197533,514,4.873140102385281
258,0.08217777777777777777777777780,516,-2.6267668996990046
259,0.08281604938271604938271604940,518,-0.687096061963976
260,0.08345679012345679012345679013,520,3.5196076311427276
261,0.0841,522,-1.4808575631967824
262,0.08474567901234567901234567901,524,-1.5161143723018247
263,0.08539382716049382716049382715,526,-0.31888310800984654
264,0.08604444444444444444444444442,528,-1.1320767061447248
265,0.08669753086419753086419753084,530,2.131256214188638
266,0.08735308641975308641975308645,532,-1.367255528673672
267,0.08801111111111111111111111113,534,-0.9206598840545558
268,0.08867160493827160493827160495,536,-2.852177431660509
269,0.08933456790123456790123456791,538,-6.974778289397829
270,0.09,540,3.7641135387486995
271,0.09066790123456790123456790123,542,1.3768430771930495
272,0.09133827160493827160493827159,544,0.7012067633447664
273,0.09201111111111111111111111109,546,0.5222935993362088
274,0.09268641975308641975308641973,548,-2.4829199791150227
275,0.09336419753086419753086419756,550,-4.669806264717806
276,0.09404444444444444444444444446,552,-0.30947527776937084
277,0.09472716049382716049382716051,554,-2.394861753016474
278,0.09541234567901234567901234569,556,-1.9820215520537763
279,0.0961,558,2.3939638229413083
280,0.09679012345679012345679012345,560,-0.9436327632514984
281,0.09748271604938271604938271604,562,0.6583244948547303
282,0.09817777777777777777777777776,564,0.6555311483725111
283,0.09887530864197530864197530861,566,-2.515035562889561
284,0.09957530864197530864197530867,568,2.848165072271265
285,0.1002777777777777777777777778,570,-0.27143990389194256
286,0.1009827160493827160493827161,572,3.639028764207782
287,0.1016901234567901234567901235,574,1.7900357589066556
288,0.1024,576,-0.14974066205612493
289,0.1031123456790123456790123457,578,-1.1098510441399685
290,0.1038271604938271604938271605,580,4.152986870717911
291,0.1045444444444444444444444444,582,-0.0036768571392968527
292,0.1052641975308641975308641975,584,1.6212890172595373
293,0.1059864197530864197530864198,586,-0.5292905603715031
294,0.1067111111111111111111111111,588,-4.347363736341735
295,0.1074382716049382716049382716,590,-5.414939039133883
296,0.1081679012345679012345679012,592,-0.41316292835507124
297,0.1089,594,-1.245581248272115
298,0.1096345679012345679012345679,596,-0.7544072159133415
299,0.1103716049382716049382716049,598,-4.961249371460508
300,0.1111111111111111111111111111,600,-0.11350370948299536
301,0.1118530864197530864197530864,602,6.197362870803472
302,0.1125975308641975308641975309,604,-0.39892547761977926
303,0.1133444444444444444444444445,606,0.5239833675311533
304,0.1140938271604938271604938272,608,-0.14877606530215792
305,0.1148456790123456790123456790,610,-1.112976396421823
306,0.1156,612,3.2379251218652625
307,0.1163567901234567901234567901,614,1.0483169211892431
308,0.1171160493827160493827160494,616,-2.4802497569120083
309,0.1178777777777777777777777778,618,-2.429400714165011
310,0.1186419753086419753086419753,620,1.1771248007598216
311,0.1194086419753086419753086420,622,-1.0094413924828178
312,0.1201777777777777777777777778,624,0.6637051842924097
313,0.1209493827160493827160493827,626,-0.9225717162788251
314,0.1217234567901234567901234568,628,-1.7814163206430873
315,0.1225,630,-1.48381155006813
316,0.1232790123456790123456790123,632,-0.6789262347749951
317,0.1240604938271604938271604938,634,4.0658930822282775
318,0.1248444444444444444444444444,636,-2.5436741232417903
319,0.1256308641975308641975308642,638,0.32367989966069993
320,0.1264197530864197530864197531,640,0.03209326030620927
321,0.1272111111111111111111111111,642,2.043473495822755
322,0.1280049382716049382716049383,644,0.7058073843930834
323,0.1288012345679012345679012346,646,4.4080465735243735
324,0.1296,648,0.3573043824611843
325,0.1304012345679012345679012346,650,2.7783486009090166
326,0.1312049382716049382716049383,652,-0.9328878090831537
327,0.1320111111111111111111111111,654,-0.44270010696067613
328,0.1328197530864197530864197531,656,-1.1398622309837994
329,0.1336308641975308641975308642,658,3.0641938858860334
330,0.1344444444444444444444444445,660,-0.9485821765929202
331,0.1352604938271604938271604938,662,1.1163719540610617
332,0.1360790123456790123456790124,664,-1.9001879682660703
333,0.1369,666,-0.7788151429394536
334,0.1377234567901234567901234568,668,-4.403631072939205
335,0.1385493827160493827160493827,670,0.8986184148222145
336,0.1393777777777777777777777778,672,-2.8702841075684997
337,0.1402086419753086419753086419,674,-0.2888577852189788
338,0.1410419753086419753086419753,676,2.319874773045208
339,0.1418777777777777777777777778,678,-1.5454891577922978
340,0.1427160493827160493827160494,680,-5.63089770793029
341,0.1435567901234567901234567901,682,3.2829348785785815
342,0.1444,684,-1.8914916661221284
343,0.1452456790123456790123456790,686,2.0351720929388186
344,0.1460938271604938271604938271,688,0.9832232096335136
345,0.1469444444444444444444444444,690,1.4556776430272533
346,0.1477975308641975308641975308,692,-0.46210079334137866
347,0.1486530864197530864197530865,694,-3.3365673581467234
348,0.1495111111111111111111111111,696,2.625684236363262
349,0.1503716049382716049382716050,698,-3.9468450498485046
350,0.1512345679012345679012345679,700,0.9535754967534897
351,0.1521,702,1.420030982132576
352,0.1529679012345679012345679012,704,3.2745231691888184
353,0.1538382716049382716049382716,706,-1.3744322808642107
354,0.1547111111111111111111111111,708,-1.6140915817966053
