,Mass (amu),Time (microseconds),Amplitude
0,0,0,-2.2784242946906867
1,0.000001234567901234567901234567901,2,-1.055971677114435
2,0.000004938271604938271604938271604,4,1.3279704566768524
3,0.00001111111111111111111111111111,6,2.849377500261142
4,0.00001975308641975308641975308642,8,3.107672358001171
5,0.00003086419753086419753086419754,10,-1.5670589570672206
6,0.00004444444444444444444444444445,12,1.6656270657787744
7,0.00006049382716049382716049382716,14,-0.6364789642013756
8,0.00007901234567901234567901234568,16,-5.700137186489381
9,0.0001,18,-4.366354433511287
10,0.0001234567901234567901234567901,20,2.0711196146306556
11,0.0001493827160493827160493827160,22,1.5546560460202885
12,0.0001777777777777777777777777777,24,-0.04615268685402093
13,0.0002086419753086419753086419752,26,-0.2780286913619967
14,0.0002419753086419753086419753088,28,-1.8853893706595728
15,0.0002777777777777777777777777779,30,1.271751233408747
16,0.0003160493827160493827160493828,32,-2.6262881157852225
17,0.0003567901234567901234567901235,34,-4.150370549400607
18,0.0004,36,-0.35067848790917716
19,0.0004456790123456790123456790123,38,1.8498671102426165
20,0.0004938271604938271604938271604,40,2.4073593870506143
21,0.0005444444444444444444444444443,42,-0.8316329859058373
22,0.0005975308641975308641975308640,44,0.9059210382074486
23,0.0006530864197530864197530864200,46,3.4030697771524587
24,0.0007111111111111111111111111113,48,2.38707407435316
25,0.0007716049382716049382716049384,50,1.6124169454288075
26,0.0008345679012345679012345679013,52,0.38276251255808685
27,0.0009,54,-0.926378127699194
28,0.0009679012345679012345679012345,56,0.22668489076673126
29,0.001038271604938271604938271605,58,-2.141693658344826
30,0.001111111111111111111111111111,60,-3.6114098724998
31,0.001186419753086419753086419753,62,-0.6950033196433133
32,0.001264197530864197530864197531,64,-0.9161066144227008
33,0.001344444444444444444444444445,66,3.7318017322281234
34,0.001427160493827160493827160494,68,-1.4180497541510406
35,0.001512345679012345679012345679,70,-7.386141584722308
36,0.0016,72,0.06556558204809462
37,0.001690123456790123456790123457,74,-2.908927564723524
38,0.001782716049382716049382716049,76,2.4221967621300307
39,0.001877777777777777777777777777,78,-0.6357934218140455
40,0.001975308641975308641975308642,80,-0.3852961520290546
41,0.002075308641975308641975308642,82,-1.0216950303990888
42,0.002177777777777777777777777778,84,-1.0070090145209893
43,0.002282716049382716049382716050,86,0.3504980246834031
44,0.002390123456790123456790123457,88,-1.3757385982136532
45,0.0025,90,-0.00019845035560983384
46,0.002612345679012345679012345679,92,0.8171277888402902
47,0.002727160493827160493827160494,94,1.672203262682561
48,0.002844444444444444444444444444,96,-1.7128163824779226
49,0.002964197530864197530864197530,98,2.0182644666585805
50,0.003086419753086419753086419754,100,-2.6298054728672993
51,0.003211111111111111111111111111,102,2.0068291529896753
52,0.003338271604938271604938271605,104,2.075673794446013
53,0.003467901234567901234567901235,106,0.13064005344057925
54,0.0036,108,0.4883629556549243
55,0.003734567901234567901234567901,110,1.8209877820224452
56,0.003871604938271604938271604938,112,-2.182596599893157
57,0.004011111111111111111111111111,114,0.9148667033659429
58,0.004153086419753086419753086419,116,3.6648755876984516
59,0.004297530864197530864197530865,118,-3.038413874944388
60,0.004444444444444444444444444445,120,-1.8845169883131727
61,0.004593827160493827160493827161,122,1.199930169386426
62,0.004745679012345679012345679012,124,-0.12252514152482058
63,0.0049,126,2.4131357958424493
64,0.005056790123456790123456790123,128,-1.277744092425696
65,0.005216049382716049382716049382,130,0.9369162771143507
66,0.005377777777777777777777777777,132,2.9815809050144173
67,0.005541975308641975308641975308,134,0.32129294828977795
68,0.005708641975308641975308641976,136,-1.389589055799781
69,0.005877777777777777777777777778,138,0.730605393256488
70,0.006049382716049382716049382716,140,3.173480050637282
71,0.006223456790123456790123456790,142,4.575818170626496
72,0.0064,144,1.7447409783707564
73,0.006579012345679012345679012345,146,-0.5499125589323294
74,0.006760493827160493827160493827,148,-1.4560467689531262
75,0.006944444444444444444444444444,150,-4.546543733643569
76,0.007130864197530864197530864197,152,0.72022527467587
77,0.007319753086419753086419753087,154,2.417380807907122
78,0.007511111111111111111111111112,156,-1.2374682838782922
79,0.007704938271604938271604938272,158,3.736486632615195
80,0.007901234567901234567901234568,160,-1.7426261202400701
81,0.0081,162,2.197367259433063
82,0.008301234567901234567901234568,164,0.5979119111907206
83,0.008504938271604938271604938271,166,1.8511181010104412
84,0.008711111111111111111111111110,168,-2.68614760118325
85,0.008919753086419753086419753086,170,2.928750531528588
86,0.009130864197530864197530864198,172,-0.661223035707419
87,0.009344444444444444444444444445,174,2.9807791433390647
88,0.009560493827160493827160493828,176,-0.7035137563511823
89,0.009779012345679012345679012346,178,2.9338109861297363
90,0.01,180,-1.5591201756636592
91,0.01022345679012345679012345679,182,4.361719555469372
92,0.01044938271604938271604938271,184,-4.162620306278316
93,0.01067777777777777777777777777,186,-0.45928950516654404
94,0.01090864197530864197530864197,188,5.22896250629633
95,0.01114197530864197530864197532,190,-0.896114004976384
96,0.01137777777777777777777777778,192,-1.6854798304619159
97,0.01161604938271604938271604939,194,-0.32329760265704593
98,0.01185679012345679012345679013,196,3.066825628610544
99,0.0121,198,-0.24344718222685433
100,0.01234567901234567901234567901,200,-3.401854305407546
101,0.01259382716049382716049382716,202,-5.964401649856009
102,0.01284444444444444444444444444,204,4.596248680881908
103,0.01309753086419753086419753085,206,-0.5425278464330339
104,0.01335308641975308641975308643,208,2.4796089956381397
105,0.01361111111111111111111111112,210,0.1943553169810836
106,0.01387160493827160493827160494,212,4.026588072897067
107,0.01413456790123456790123456790,214,2.5333569917862784
108,0.0144,216,1.9645162964162022
109,0.01466790123456790123456790123,218,0.25117751085428547
110,0.01493827160493827160493827160,220,4.126587607055985
111,0.01521111111111111111111111110,222,0.694269346450134
112,0.01548641975308641975308641974,224,-1.7208396378981277
113,0.01576419753086419753086419754,226,-0.48207851593112444
114,0.01604444444444444444444444445,228,1.6515486614598085
115,0.01632716049382716049382716050,230,0.30305776238050813
116,0.01661234567901234567901234568,232,-1.9286231942475798
117,0.0169,234,-1.0436888138276328
118,0.01719012345679012345679012345,236,-1.0250255259075385
119,0.01748271604938271604938271604,238,-3.19570094341682
120,0.01777777777777777777777777777,240,2.481699256331925
121,0.01807530864197530864197530863,242,-0.7020491900066361
122,0.01837530864197530864197530865,244,1.81428950906091
123,0.01867777777777777777777777779,246,-0.4828126263025368
124,0.01898271604938271604938271606,248,-3.5528967775416116
125,0.01929012345679012345679012346,250,0.4068511984270254
126,0.0196,252,-2.3234501909777467
127,0.01991234567901234567901234568,254,-0.058140266198619575
128,0.02022716049382716049382716049,256,2.2747571523689207
129,0.02054444444444444444444444443,258,-3.6563038946311286
130,0.02086419753086419753086419752,260,-2.013193957939711
131,0.02118641975308641975308641977,262,-1.6082635322408063
132,0.02151111111111111111111111112,264,1.0062963687739104
133,0.02183827160493827160493827161,266,0.6425508939747865
134,0.02216790123456790123456790124,268,3.927802785776105
135,0.0225,270,-1.5544992152689674
136,0.02283456790123456790123456790,272,-0.42620509799242884
137,0.02317160493827160493827160493,274,-0.8976421199082274
138,0.02351111111111111111111111110,276,-1.4654540788248918
139,0.02385308641975308641975308641,278,-1.8965903652734473
140,0.02419753086419753086419753088,280,3.2235756895404615
141,0.02454444444444444444444444445,282,-0.17224665053913893
142,0.02489382716049382716049382717,284,0.3419183297312969
143,0.02524567901234567901234567902,286,-3.2899677569474313
144,0.0256,288,-2.6409645851000545
145,0.02595679012345679012345679012,290,1.4366029580320208
146,0.02631604938271604938271604938,292,0.766290488644142
147,0.02667777777777777777777777777,294,-0.46328621769447886
148,0.02704197530864197530864197529,296,0.9449915876888988
149,0.02740864197530864197530864199,298,-0.7263010818937014
150,0.02777777777777777777777777779,300,-1.1159062102611652
151,0.02814938271604938271604938272,302,0.15527201721769612
152,0.02852345679012345679012345679,304,-5.2186446157464
153,0.0289,306,0.4834899035339608
154,0.02927901234567901234567901234,308,-3.2432921508865267
155,0.02966049382716049382716049382,310,-1.876686177636513
156,0.03004444444444444444444444443,312,-1.8783364924406898
157,0.03043086419753086419753086418,314,1.9778247793859944
158,0.03081975308641975308641975310,316,1.549069412212712
159,0.03121111111111111111111111112,318,1.9681942039934424
160,0.03160493827160493827160493828,320,-2.97304221018175
161,0.03200123456790123456790123457,322,1.9377896575347318
162,0.0324,324,-0.915370373594623
163,0.03280123456790123456790123456,326,-2.8796479093263523
164,0.03320493827160493827160493826,328,-0.47824727000628886
165,0.03361111111111111111111111110,330,0.39019088508696737
166,0.03401975308641975308641975307,332,0.6861553075857495
167,0.03443086419753086419753086421,334,-0.9614441318715942
168,0.03484444444444444444444444446,336,-1.4204260259700972
169,0.03526049382716049382716049384,338,0.8954622717896944
170,0.03567901234567901234567901235,340,1.4009678591753008
171,0.0361,342,-1.945905438982123
172,0.03652345679012345679012345679,344,1.2976115555288854
173,0.03694938271604938271604938271,346,-1.452284070218151
174,0.03737777777777777777777777776,348,0.6274619393372257
175,0.03780864197530864197530864196,350,1.1233769874136859
176,0.03824197530864197530864197533,352,-0.7518100686259267
177,0.03867777777777777777777777779,354,-1.417326366363986
178,0.03911604938271604938271604939,356,0.8536012693951935
179,0.03955679012345679012345679013,358,-0.7031515433494601
180,0.04,360,-0.9619280233265103
181,0.04044567901234567901234567901,362,1.0501121382174023
182,0.04089382716049382716049382715,364,0.9968533128228135
183,0.04134444444444444444444444443,366,-1.8456074755634928
184,0.04179753086419753086419753085,368,-3.3895646180780337
185,0.04225308641975308641975308644,370,4.278498642366748
186,0.04271111111111111111111111112,372,-0.7797337431001016
187,0.04317160493827160493827160495,374,-0.8368998843631303
188,0.04363456790123456790123456791,376,1.5432369295130337
189,0.0441,378,-1.465184572466531
190,0.04456790123456790123456790123,380,-1.3185766837963975
191,0.04503827160493827160493827160,382,1.6100378304599856
192,0.04551111111111111111111111110,384,-0.0572093600658842
193,0.04598641975308641975308641973,386,-2.737887917995351
194,0.04646419753086419753086419755,388,0.4369185978724807
195,0.04694444444444444444444444446,390,4.412878522149228
196,0.04742716049382716049382716050,392,-3.267705532449997
197,0.04791234567901234567901234568,394,1.1288228053485048
198,0.0484,396,-3.4743896976678417
199,0.04889012345679012345679012345,398,0.16972698731954636
200,0.04938271604938271604938271604,400,0.9072607413342539
201,0.04987777777777777777777777776,402,-0.05596694292614686
202,0.05037530864197530864197530862,404,4.644214445516928
203,0.05087530864197530864197530866,406,-2.34424793167577
204,0.05137777777777777777777777779,408,0.9686932974538769
205,0.05188271604938271604938271606,410,2.781863188618546
206,0.05239012345679012345679012346,412,1.2645685637818411
207,0.0529,414,1.260162448529402
208,0.05341234567901234567901234567,416,-1.0422854233073113
209,0.05392716049382716049382716048,418,-1.471566399369073
210,0.05444444444444444444444444443,420,-0.7717434198773024
211,0.05496419753086419753086419751,422,-0.24632795281950345
212,0.05548641975308641975308641977,424,-0.3521302591747669
213,0.05601111111111111111111111113,426,2.30296472320611
214,0.05653827160493827160493827162,428,-0.2831743310198662
215,0.05706790123456790123456790124,430,0.8280289010044216
216,0.0576,432,1.5546851206088665
217,0.05813456790123456790123456790,434,2.413431456094463
218,0.05867160493827160493827160493,436,-1.520481975835168
219,0.05921111111111111111111111109,438,1.999887050249485
220,0.05975308641975308641975308640,440,-1.7342404688669344
221,0.06029753086419753086419753089,442,-0.4655848639368237
222,0.06084444444444444444444444446,444,-4.681005699373368
223,0.06139382716049382716049382717,446,-0.30671601776816565
224,0.06194567901234567901234567902,448,-1.7337855651128224
225,0.0625,450,-0.26162296075048325
226,0.06305679012345679012345679012,452,-0.6664462030821485
227,0.06361604938271604938271604937,454,-4.777327978890771
228,0.06417777777777777777777777776,456,-5.478121637096145
229,0.06474197530864197530864197529,458,2.443433364108565
230,0.06530864197530864197530864200,460,2.716308170369103
231,0.06587777777777777777777777779,462,3.351209431634122
232,0.06644938271604938271604938273,464,-0.6791781245303594
233,0.06702345679012345679012345680,466,-0.0829200589960262
234,0.0676,468,4.707347916008707
235,0.06817901234567901234567901234,470,1.6970084484022023
236,0.06876049382716049382716049382,472,-1.754090728969484
237,0.06934444444444444444444444443,474,-0.1307369565739305
238,0.06993086419753086419753086417,476,-1.4585711653483449
239,0.07051975308641975308641975311,478,1.5384192188282493
240,0.07111111111111111111111111113,480,-1.079102509358513
241,0.07170493827160493827160493828,482,-2.44285917631195
242,0.07230123456790123456790123457,484,0.2899774402966799
243,0.0729,486,-2.26597792444785
244,0.07350123456790123456790123456,488,3.2323960673976573
245,0.07410493827160493827160493826,490,-0.2944078702719147
246,0.07471111111111111111111111109,492,0.5544277105069582
247,0.07531975308641975308641975306,494,4.377920336997701
248,0.07593086419753086419753086422,496,-1.9995048342136807
249,0.07654444444444444444444444446,498,-1.3594742247367164
250,0.07716049382716049382716049384,500,-1.2448336335051249
251,0.07777901234567901234567901235,502,1.8636319549540028
252,0.0784,504,-2.559397147299474
253,0.07902345679012345679012345678,506,0.9683984948887906
254,0.07964938271604938271604938270,508,4.237760169952626
255,0.08027777777777777777777777776,510,3.2910769559439785
256,0.08090864197530864197530864195,512,1.5202981917736325
257,0.08154197530864197530864197533,514,1.6655179473879083
258,0.08217777777777777777777777780,516,6.479233778979978
259,0.08281604938271604938271604940,518,-4.519277450030584
260,0.08345679012345679012345679013,520,0.26775128996109765
261,0.0841,522,3.2201401650930896
262,0.08474567901234567901234567901,524,2.014478163798675
263,0.08539382716049382716049382715,526,1.6721437581547858
264,0.08604444444444444444444444442,528,-2.066572070620293
265,0.08669753086419753086419753084,530,2.130258824524004
266,0.08735308641975308641975308645,532,2.2553522018691243
267,0.08801111111111111111111111113,534,-1.14028925780788
268,0.08867160493827160493827160495,536,0.8720037045602451
269,0.08933456790123456790123456791,538,-2.5905195641264354
270,0.09,540,1.38787143670946
271,0.09066790123456790123456790123,542,-1.3126287693372525
272,0.09133827160493827160493827159,544,-3.2709121377306047
273,0.09201111111111111111111111109,546,-2.10372809672074
274,0.09268641975308641975308641973,548,-0.07063127404565651
275,0.09336419753086419753086419756,550,0.25871716523956356
276,0.09404444444444444444444444446,552,-0.40251717613011234
277,0.09472716049382716049382716051,554,-0.11621500336970042
278,0.09541234567901234567901234569,556,-1.2295682131192345
279,0.0961,558,-0.8492011202589514
280,0.09679012345679012345679012345,560,0.8306172522857408
281,0.09748271604938271604938271604,562,-0.8155455949913403
282,0.09817777777777777777777777776,564,-4.771942546800542
283,0.09887530864197530864197530861,566,0.9809724663970805
284,0.09957530864197530864197530867,568,0.6929361335015983
285,0.1002777777777777777777777778,570,-0.8917345445251832
286,0.1009827160493827160493827161,572,-2.3066948110832337
287,0.1016901234567901234567901235,574,-1.119218702536979
288,0.1024,576,-3.3043201023920314
289,0.1031123456790123456790123457,578,2.515448302259786
290,0.1038271604938271604938271605,580,2.3348234604800457
291,0.1045444444444444444444444444,582,-4.79295706039179
292,0.1052641975308641975308641975,584,4.667747781712129
293,0.1059864197530864197530864198,586,-4.455907460528552
294,0.1067111111111111111111111111,588,0.8937380976759591
295,0.1074382716049382716049382716,590,3.8872836951028185
296,0.1081679012345679012345679012,592,2.7111900857912117
297,0.1089,594,3.5878892889641993
298,0.1096345679012345679012345679,596,3.4008785420250796
299,0.1103716049382716049382716049,598,3.146320274034511
300,0.1111111111111111111111111111,600,3.8283663871534332
301,0.1118530864197530864197530864,602,-3.595051092626848
302,0.1125975308641975308641975309,604,-0.24418774576715177
303,0.1133444444444444444444444445,606,1.087151614697051
304,0.1140938271604938271604938272,608,-1.1517316750272348
305,0.1148456790123456790123456790,610,0.6219756264154851
306,0.1156,612,-0.4246865133819402
307,0.1163567901234567901234567901,614,1.104144858613762
308,0.1171160493827160493827160494,616,-0.6168999278636113
309,0.1178777777777777777777777778,618,1.0578299598873029
310,0.1186419753086419753086419753,620,-4.028387267469234
311,0.1194086419753086419753086420,622,-0.35376020858303076
312,0.1201777777777777777777777778,624,3.7689314010896626
313,0.1209493827160493827160493827,626,0.042003548651205064
314,0.1217234567901234567901234568,628,1.1804154654661996
315,0.1225,630,2.2977480160784878
316,0.1232790123456790123456790123,632,3.3242358697880214
317,0.1240604938271604938271604938,634,0.03512851823149842
318,0.1248444444444444444444444444,636,2.849463495879515
319,0.1256308641975308641975308642,638,3.0165595061707307
320,0.1264197530864197530864197531,640,-3.1041404126479653
321,0.1272111111111111111111111111,642,1.2939274510814665
322,0.1280049382716049382716049383,644,-2.0953445101948924
323,0.1288012345679012345679012346,646,2.1330046813162893
324,0.1296,648,0.050490018764537396
325,0.1304012345679012345679012346,650,-1.2768864079222149
326,0.1312049382716049382716049383,652,0.27483207434378376
327,0.1320111111111111111111111111,654,-2.2413764986060047
328,0.1328197530864197530864197531,656,-2.8107614747962573
329,0.1336308641975308641975308642,658,-1.6512819372908627
330,0.1344444444444444444444444445,660,0.34547557449140504
331,0.1352604938271604938271604938,662,-0.438665988383944
332,0.1360790123456790123456790124,664,-0.2988878716094504
333,0.1369,666,-0.3017385876448864
334,0.1377234567901234567901234568,668,2.0109542140980854
335,0.1385493827160493827160493827,670,1.1337849727866522
336,0.1393777777777777777777777778,672,3.9743818455207816
337,0.1402086419753086419753086419,674,2.3982345323561143
338,0.1410419753086419753086419753,676,-0.13683779206256597
339,0.1418777777777777777777777778,678,-3.0099973344654383
340,0.1427160493827160493827160494,680,0.9882489325376492
341,0.1435567901234567901234567901,682,-0.8221930159899287
342,0.1444,684,-3.3581463710199757
343,0.1452456790123456790123456790,686,3.524606389002355
344,0.1460938271604938271604938271,688,-1.2262113900340585
345,0.1469444444444444444444444444,690,-2.007893479029125
346,0.1477975308641975308641975308,692,-4.97905087223075
347,0.1486530864197530864197530865,694,-0.9662830004364295
348,0.1495111111111111111111111111,696,1.2757726749976308
349,0.1503716049382716049382716050,698,0.897197445939459
350,0.1512345679012345679012345679,700,0.9461480043412656
351,0.1521,702,1.2188090865238783
352,0.1529679012345679012345679012,704,1.530412802864332
353,0.1538382716049382716049382716,706,6.701787191314639
354,0.1547111111111111111111111111,708,-0.7464947825342758
