,Mass (amu),Time (microseconds),Amplitude
0,0,0,0.40624450376839627
1,0.000001234567901234567901234567901,2,-1.1682232405009945
2,0.000004938271604938271604938271604,4,-1.174219656687033
3,0.00001111111111111111111111111111,6,1.0899332763239562
4,0.00001975308641975308641975308642,8,-1.2967062904406792
5,0.00003086419753086419753086419754,10,1.0181549538764356
6,0.00004444444444444444444444444445,12,-1.6927483534485783
7,0.00006049382716049382716049382716,14,4.746093424341094
8,0.00007901234567901234567901234568,16,1.079017478838656
9,0.0001,18,-2.110927474310398
10,0.0001234567901234567901234567901,20,-2.2227698964922165
11,0.0001493827160493827160493827160,22,-0.8145640147843148
12,0.0001777777777777777777777777777,24,-1.6988478596214578
13,0.0002086419753086419753086419752,26,-1.9754843860037399
14,0.0002419753086419753086419753088,28,4.253182447896582
15,0.0002777777777777777777777777779,30,0.7908494202279713
16,0.0003160493827160493827160493828,32,-0.28309970528122136
17,0.0003567901234567901234567901235,34,-1.1143299828032691
18,0.0004,36,0.9734036721264188
19,0.0004456790123456790123456790123,38,1.5886011693155635
20,0.0004938271604938271604938271604,40,1.3961928688341154
21,0.0005444444444444444444444444443,42,-1.0311293906370833
22,0.0005975308641975308641975308640,44,2.5303644787649127
23,0.0006530864197530864197530864200,46,-5.2680220896279355
24,0.0007111111111111111111111111113,48,1.1064150857732113
25,0.0007716049382716049382716049384,50,1.069695903461101
26,0.0008345679012345679012345679013,52,-1.4143045648826233
27,0.0009,54,3.391850354575749
28,0.0009679012345679012345679012345,56,1.8179220180943367
29,0.001038271604938271604938271605,58,-2.3562597739421283
30,0.001111111111111111111111111111,60,0.021426524376837803
31,0.001186419753086419753086419753,62,1.4396902007403183
32,0.001264197530864197530864197531,64,0.3068922577502668
33,0.001344444444444444444444444445,66,-1.2709546004348842
34,0.001427160493827160493827160494,68,-0.9381595893154009
35,0.001512345679012345679012345679,70,-2.796958516201591
36,0.0016,72,0.7186963287091157
37,0.001690123456790123456790123457,74,2.829064784074539
38,0.001782716049382716049382716049,76,-3.8998027979371797
39,0.001877777777777777777777777777,78,2.7442332596030536
40,0.001975308641975308641975308642,80,-3.8101457573411937
41,0.002075308641975308641975308642,82,-2.4876855979452106
42,0.002177777777777777777777777778,84,0.13101691536180088
43,0.002282716049382716049382716050,86,1.7150848209777285
44,0.002390123456790123456790123457,88,2.2535133183942966
45,0.0025,90,2.4662852273667717
46,0.002612345679012345679012345679,92,1.6732064423303314
47,0.002727160493827160493827160494,94,-3.3618272085636773
48,0.002844444444444444444444444444,96,-2.8776938487245523
49,0.002964197530864197530864197530,98,0.8068000099109943
50,0.003086419753086419753086419754,100,2.1040090927733615
51,0.003211111111111111111111111111,102,0.3869028011292893
52,0.003338271604938271604938271605,104,-0.888073664013312
53,0.003467901234567901234567901235,106,-0.5671874494727491
54,0.0036,108,-1.1560233549495933
55,0.003734567901234567901234567901,110,3.532873397047321
56,0.003871604938271604938271604938,112,-1.6388544692191307
57,0.004011111111111111111111111111,114,-0.09595749459365367
58,0.004153086419753086419753086419,116,-0.9023076703930832
59,0.004297530864197530864197530865,118,-0.9949653109938095
60,0.004444444444444444444444444445,120,0.3521375603707775
61,0.004593827160493827160493827161,122,-0.563398798600417
62,0.004745679012345679012345679012,124,2.15829001286174
63,0.0049,126,-0.06671300639503559
64,0.005056790123456790123456790123,128,-0.7640686594216313
65,0.005216049382716049382716049382,130,2.340018277378021
66,0.005377777777777777777777777777,132,-1.8590752906637447
67,0.005541975308641975308641975308,134,3.25752695326511
68,0.005708641975308641975308641976,136,0.8202887968130634
69,0.005877777777777777777777777778,138,3.166062298859447
70,0.006049382716049382716049382716,140,-0.9981002938640673
71,0.006223456790123456790123456790,142,2.8376851244788646
72,0.0064,144,-3.0851997196556047
73,0.006579012345679012345679012345,146,1.6371732832716717
74,0.006760493827160493827160493827,148,0.7125872268277443
75,0.006944444444444444444444444444,150,-0.4926477621946223
76,0.007130864197530864197530864197,152,-0.9677296409269239
77,0.007319753086419753086419753087,154,3.9110355646420447
78,0.007511111111111111111111111112,156,4.8922480594239754
79,0.007704938271604938271604938272,158,-1.1171496356098984
80,0.007901234567901234567901234568,160,-2.06927192200804
81,0.0081,162,3.7315423799579417
82,0.008301234567901234567901234568,164,-0.8497178884607661
83,0.008504938271604938271604938271,166,-0.02273214404429266
84,0.008711111111111111111111111110,168,-2.222780016318713
85,0.008919753086419753086419753086,170,-2.206005749541764
86,0.009130864197530864197530864198,172,-0.6697193414128327
87,0.009344444444444444444444444445,174,-1.541574503406557
88,0.009560493827160493827160493828,176,-0.7692025020837663
89,0.009779012345679012345679012346,178,-0.05371031019701215
90,0.01,180,3.141149557394238
91,0.01022345679012345679012345679,182,-2.6464120775160223
92,0.01044938271604938271604938271,184,0.4748338137564453
93,0.01067777777777777777777777777,186,-0.36205424463308683
94,0.01090864197530864197530864197,188,-0.7726397880170768
95,0.01114197530864197530864197532,190,0.7475034035013582
96,0.01137777777777777777777777778,192,-0.05897380167553353
97,0.01161604938271604938271604939,194,-1.6284288543802492
98,0.01185679012345679012345679013,196,-2.053705926907775
99,0.0121,198,-0.20648118600302137
100,0.01234567901234567901234567901,200,3.042822504802659
101,0.01259382716049382716049382716,202,2.50903320629065
102,0.01284444444444444444444444444,204,-1.1837549664164468
103,0.01309753086419753086419753085,206,0.018209998010869068
104,0.01335308641975308641975308643,208,1.337121785826057
105,0.01361111111111111111111111112,210,4.5848298354656745
106,0.01387160493827160493827160494,212,2.008818690942712
107,0.01413456790123456790123456790,214,-1.1825353565267256
108,0.0144,216,1.9290542503458041
109,0.01466790123456790123456790123,218,-2.3975843604879516
110,0.01493827160493827160493827160,220,2.5073283533330435
111,0.01521111111111111111111111110,222,-1.1772497461103775
112,0.01548641975308641975308641974,224,-0.28418993937910103
113,0.01576419753086419753086419754,226,-2.808610214264563
114,0.01604444444444444444444444445,228,4.4001676477042855
115,0.01632716049382716049382716050,230,-3.264009068214971
116,0.01661234567901234567901234568,232,-2.003086031069501
117,0.0169,234,0.9763512181005297
118,0.01719012345679012345679012345,236,0.9624037653326062
119,0.01748271604938271604938271604,238,2.629221150113283
120,0.01777777777777777777777777777,240,-0.14226087930994427
121,0.01807530864197530864197530863,242,6.4365806138963535
122,0.01837530864197530864197530865,244,-1.7705006738380749
123,0.01867777777777777777777777779,246,-1.1301544598653757
124,0.01898271604938271604938271606,248,3.05414099787934
125,0.01929012345679012345679012346,250,-2.5098322015397176
126,0.0196,252,-0.9063149633955061
127,0.01991234567901234567901234568,254,-3.1754025256841687
128,0.02022716049382716049382716049,256,1.1650587088846747
129,0.02054444444444444444444444443,258,0.5657266868984079
130,0.02086419753086419753086419752,260,-0.7111577869506271
131,0.02118641975308641975308641977,262,0.7404721824877873
132,0.02151111111111111111111111112,264,0.19623208436722714
133,0.02183827160493827160493827161,266,4.936279673470705
134,0.02216790123456790123456790124,268,-2.542550562587556
135,0.0225,270,0.8582168575683443
136,0.02283456790123456790123456790,272,0.7846050455050364
137,0.02317160493827160493827160493,274,-1.4834683737506942
138,0.02351111111111111111111111110,276,0.00995617185516648
139,0.02385308641975308641975308641,278,0.5302741968784024
140,0.02419753086419753086419753088,280,3.5267507976393633
141,0.02454444444444444444444444445,282,-3.6239520997898858
142,0.02489382716049382716049382717,284,-5.8908480624254755
143,0.02524567901234567901234567902,286,2.733598025511981
144,0.0256,288,1.8069936681427223
145,0.02595679012345679012345679012,290,7.075713051441881
146,0.02631604938271604938271604938,292,-2.2315682416410936
147,0.02667777777777777777777777777,294,1.8385058940491414
148,0.02704197530864197530864197529,296,-0.9081216934814484
149,0.02740864197530864197530864199,298,-0.9289294000013898
150,0.02777777777777777777777777779,300,-0.4287876034938589
151,0.02814938271604938271604938272,302,-0.30096406354692734
152,0.02852345679012345679012345679,304,0.5478178022446963
153,0.0289,306,-0.5649560810651857
154,0.02927901234567901234567901234,308,1.044264208635642
155,0.02966049382716049382716049382,310,-0.956062944824997
156,0.03004444444444444444444444443,312,-2.5359706793427725
157,0.03043086419753086419753086418,314,-0.7997934826519033
158,0.03081975308641975308641975310,316,1.0960678882269745
159,0.03121111111111111111111111112,318,-0.06742359824532586
160,0.03160493827160493827160493828,320,2.037388822760862
161,0.03200123456790123456790123457,322,1.7800534383683226
162,0.0324,324,1.9634651938436958
163,0.03280123456790123456790123456,326,-1.1901982743923325
164,0.03320493827160493827160493826,328,1.096650504114361
165,0.03361111111111111111111111110,330,-3.472949973555296
166,0.03401975308641975308641975307,332,2.729176436040283
167,0.03443086419753086419753086421,334,-1.1275993130103197
168,0.03484444444444444444444444446,336,0.434866558716971
169,0.03526049382716049382716049384,338,2.770032378424795
170,0.03567901234567901234567901235,340,0.37873568276498404
171,0.0361,342,1.3946441443192468
172,0.03652345679012345679012345679,344,0.6696806045955477
173,0.03694938271604938271604938271,346,-0.11845477919120112
174,0.03737777777777777777777777776,348,4.1131450522325
175,0.03780864197530864197530864196,350,-1.0310338947734699
176,0.03824197530864197530864197533,352,-2.8364555556186457
177,0.03867777777777777777777777779,354,0.5681177617366026
178,0.03911604938271604938271604939,356,-2.1283459088334067
179,0.03955679012345679012345679013,358,-1.9806024448785804
180,0.04,360,-0.10995300740939688
181,0.04044567901234567901234567901,362,1.6454909317519708
182,0.04089382716049382716049382715,364,3.513149485661535
183,0.04134444444444444444444444443,366,-1.0344400905215776
184,0.04179753086419753086419753085,368,1.663722483346102
185,0.04225308641975308641975308644,370,-1.921133591910391
186,0.04271111111111111111111111112,372,-2.94389544548466
187,0.04317160493827160493827160495,374,1.3011972226432182
188,0.04363456790123456790123456791,376,-0.7182767639874185
189,0.0441,378,-1.0570033287435043
190,0.04456790123456790123456790123,380,-0.6805101825229154
191,0.04503827160493827160493827160,382,2.7805687191542443
192,0.04551111111111111111111111110,384,0.18811584904819467
193,0.04598641975308641975308641973,386,0.9200804167778878
194,0.04646419753086419753086419755,388,-1.167276019826643
195,0.04694444444444444444444444446,390,-2.0531647812085083
196,0.04742716049382716049382716050,392,2.6137091704062647
197,0.04791234567901234567901234568,394,3.113432716085597
198,0.0484,396,0.21812497460730315
199,0.04889012345679012345679012345,398,-4.939920406930846
200,0.04938271604938271604938271604,400,1.8068012577896864
201,0.04987777777777777777777777776,402,1.1053732985589426
202,0.05037530864197530864197530862,404,0.011219658833886793
203,0.05087530864197530864197530866,406,-1.3558983443328687
204,0.05137777777777777777777777779,408,1.582544143352862
205,0.05188271604938271604938271606,410,0.8135212649892802
206,0.05239012345679012345679012346,412,0.37044479808987674
207,0.0529,414,2.0379052305818823
208,0.05341234567901234567901234567,416,1.6507748916661924
209,0.05392716049382716049382716048,418,-0.030090863356627272
210,0.05444444444444444444444444443,420,1.974723591660478
211,0.05496419753086419753086419751,422,-1.9201449694764772
212,0.05548641975308641975308641977,424,-1.5058719695714322
213,0.05601111111111111111111111113,426,-0.22092863470203722
214,0.05653827160493827160493827162,428,-1.3342206187112735
215,0.05706790123456790123456790124,430,1.0470635520795806
216,0.0576,432,0.8984515559664659
217,0.05813456790123456790123456790,434,0.8159948098002575
218,0.05867160493827160493827160493,436,0.15743501320613182
219,0.05921111111111111111111111109,438,1.657332602641113
220,0.05975308641975308641975308640,440,-1.509212676089808
221,0.06029753086419753086419753089,442,1.1921289631582734
222,0.06084444444444444444444444446,444,-1.0110332253137604
223,0.06139382716049382716049382717,446,3.0333211240375526
224,0.06194567901234567901234567902,448,1.0669470677444466
225,0.0625,450,-1.8003255790016868
226,0.06305679012345679012345679012,452,0.11659106832468491
227,0.06361604938271604938271604937,454,1.5682370481685468
228,0.06417777777777777777777777776,456,-3.01264331605679
229,0.06474197530864197530864197529,458,-1.5218694402429556
230,0.06530864197530864197530864200,460,-3.1682374217474463
231,0.06587777777777777777777777779,462,2.301142614210201
232,0.06644938271604938271604938273,464,-1.664839543841146
233,0.06702345679012345679012345680,466,-2.9247632664821306
234,0.0676,468,3.0300300669863094
235,0.06817901234567901234567901234,470,2.776816862653796
236,0.06876049382716049382716049382,472,2.5154546802619664
237,0.06934444444444444444444444443,474,-2.0306833902661943
238,0.06993086419753086419753086417,476,2.7165538817446975
239,0.07051975308641975308641975311,478,1.9687502988935675
240,0.07111111111111111111111111113,480,0.38647896421526584
241,0.07170493827160493827160493828,482,-2.5194951084365647
242,0.07230123456790123456790123457,484,1.7562124634990695
243,0.0729,486,0.030554668046308683
244,0.07350123456790123456790123456,488,0.011287155564349727
245,0.07410493827160493827160493826,490,-2.202766483326852
246,0.07471111111111111111111111109,492,0.359416775384751
247,0.07531975308641975308641975306,494,-2.1015636545630674
248,0.07593086419753086419753086422,496,0.33491879740897335
249,0.07654444444444444444444444446,498,0.3415383194975133
250,0.07716049382716049382716049384,500,-1.6447549060355329
251,0.07777901234567901234567901235,502,-1.8172544598589988
252,0.0784,504,2.3684490213651928
253,0.07902345679012345679012345678,506,1.7353061681924296
254,0.07964938271604938271604938270,508,-0.41396873444120064
255,0.08027777777777777777777777776,510,-2.211897699360319
256,0.08090864197530864197530864195,512,-3.8452193254375007
257,0.08154197530864197530864197533,514,-1.4665830639062905
258,0.08217777777777777777777777780,516,0.5624925939220967
259,0.08281604938271604938271604940,518,0.12107848445173607
260,0.08345679012345679012345679013,520,-0.25595302328893293
261,0.0841,522,0.9294084751425005
262,0.08474567901234567901234567901,524,-3.4594366062092985
263,0.08539382716049382716049382715,526,-0.8470136491066244
264,0.08604444444444444444444444442,528,-0.8835381774581897
265,0.08669753086419753086419753084,530,-0.07388721453399696
266,0.08735308641975308641975308645,532,1.312250468418436
267,0.08801111111111111111111111113,534,3.084008174922838
268,0.08867160493827160493827160495,536,0.12592463925853065
269,0.08933456790123456790123456791,538,-0.3257596465019437
270,0.09,540,5.826441233124537
271,0.09066790123456790123456790123,542,-0.14720536291782307
272,0.09133827160493827160493827159,544,-1.026244802608842
273,0.09201111111111111111111111109,546,0.4383926983589569
274,0.09268641975308641975308641973,548,1.9278811260304618
275,0.09336419753086419753086419756,550,-1.69680496177417
276,0.09404444444444444444444444446,552,-1.6070197733211755
277,0.09472716049382716049382716051,554,2.967531665621744
278,0.09541234567901234567901234569,556,0.8194745144276524
279,0.0961,558,2.792481435796167
280,0.09679012345679012345679012345,560,5.538259296645143
281,0.09748271604938271604938271604,562,1.3698160076482353
282,0.09817777777777777777777777776,564,1.4200011426571928
283,0.09887530864197530864197530861,566,0.2987742588456211
284,0.09957530864197530864197530867,568,2.2716271128387375
285,0.1002777777777777777777777778,570,3.956091651400458
286,0.1009827160493827160493827161,572,1.1989377253480724
287,0.1016901234567901234567901235,574,-2.686833312938758
288,0.1024,576,0.6334297768626935
289,0.1031123456790123456790123457,578,-2.0627745905423622
290,0.1038271604938271604938271605,580,-3.469838101651957
291,0.1045444444444444444444444444,582,-2.0341427156559866
292,0.1052641975308641975308641975,584,-0.21317858356531974
293,0.1059864197530864197530864198,586,-0.03827608366439743
294,0.1067111111111111111111111111,588,1.8476695563186618
295,0.1074382716049382716049382716,590,-1.449343582250107
296,0.1081679012345679012345679012,592,-0.41476096321013944
297,0.1089,594,0.8831782247715005
298,0.1096345679012345679012345679,596,2.5478067781093148
299,0.1103716049382716049382716049,598,-3.475106034167851
300,0.1111111111111111111111111111,600,0.25220452450916264
301,0.1118530864197530864197530864,602,2.395900241406976
302,0.1125975308641975308641975309,604,-3.5045448077940637
303,0.1133444444444444444444444445,606,2.020541740132284
304,0.1140938271604938271604938272,608,-0.21215497329874744
305,0.1148456790123456790123456790,610,0.5360291968101072
306,0.1156,612,1.862741199124778
307,0.1163567901234567901234567901,614,-1.3570206501663504
308,0.1171160493827160493827160494,616,-0.5822657579504826
309,0.1178777777777777777777777778,618,-1.5409765115696414
310,0.1186419753086419753086419753,620,-1.307289996948873
311,0.1194086419753086419753086420,622,3.4557593790027417
312,0.1201777777777777777777777778,624,-3.2501215176219405
313,0.1209493827160493827160493827,626,-0.8068201466837704
314,0.1217234567901234567901234568,628,-0.7135839638878997
315,0.1225,630,0.17647891280003983
316,0.1232790123456790123456790123,632,-1.2013742535999634
317,0.1240604938271604938271604938,634,-0.17237209895554192
318,0.1248444444444444444444444444,636,2.2641134529350664
319,0.1256308641975308641975308642,638,-3.512809303811876
320,0.1264197530864197530864197531,640,0.9412195892006514
321,0.1272111111111111111111111111,642,-1.9540682419400872
322,0.1280049382716049382716049383,644,-2.4833057381112598
323,0.1288012345679012345679012346,646,-4.2972983869256245
324,0.1296,648,-1.2091059828920259
325,0.1304012345679012345679012346,650,-1.6097459029585834
326,0.1312049382716049382716049383,652,-0.8286818815385966
327,0.1320111111111111111111111111,654,-0.24388936459731003
328,0.1328197530864197530864197531,656,5.9351153257779155
329,0.1336308641975308641975308642,658,3.171349539718034
330,0.1344444444444444444444444445,660,-0.019626881365102117
331,0.1352604938271604938271604938,662,2.518552483513202
332,0.1360790123456790123456790124,664,0.1299760883490885
333,0.1369,666,-4.353243719322975
334,0.1377234567901234567901234568,668,-2.002546812829054
335,0.1385493827160493827160493827,670,1.6890531922550485
336,0.1393777777777777777777777778,672,2.782782556241142
337,0.1402086419753086419753086419,674,0.7400322889098683
338,0.1410419753086419753086419753,676,2.697416336707706
339,0.1418777777777777777777777778,678,-0.7135315274496357
340,0.1427160493827160493827160494,680,3.4720640080376457
341,0.1435567901234567901234567901,682,0.9525179580008782
342,0.1444,684,2.080240747275259
343,0.1452456790123456790123456790,686,1.487074255781186
344,0.1460938271604938271604938271,688,1.9984687874196543
345,0.1469444444444444444444444444,690,-3.686583188837168
346,0.1477975308641975308641975308,692,-4.39150856258904
347,0.1486530864197530864197530865,694,4.1994426665579825
348,0.1495111111111111111111111111,696,-2.665999825282807
349,0.1503716049382716049382716050,698,-1.3443844421405644
350,0.1512345679012345679012345679,700,0.48198761379166716
351,0.1521,702,-4.70602525474106
352,0.1529679012345679012345679012,704,-1.914650344038418
353,0.1538382716049382716049382716,706,-4.749693532626149
354,0.1547111111111111111111111111,708,-2.629780362019995
