,Mass (amu),Time (microseconds),Amplitude
0,0,0,-2.676055219290709
1,0.000001234567901234567901234567901,2,0.7967445281499952
2,0.000004938271604938271604938271604,4,0.23649721544533783
3,0.00001111111111111111111111111111,6,-0.9584982805171505
4,0.00001975308641975308641975308642,8,-1.0259285025004832
5,0.00003086419753086419753086419754,10,3.83506787296347
6,0.00004444444444444444444444444445,12,1.1591226342521808
7,0.00006049382716049382716049382716,14,-3.827691749941496
8,0.00007901234567901234567901234568,16,-3.231216944024809
9,0.0001,18,-0.6550192527962387
10,0.0001234567901234567901234567901,20,0.34716389020911403
11,0.0001493827160493827160493827160,22,-0.15293502659865033
12,0.0001777777777777777777777777777,24,1.7323298487429528
13,0.0002086419753086419753086419752,26,1.2234722073737403
14,0.0002419753086419753086419753088,28,0.727346703116673
15,0.0002777777777777777777777777779,30,0.6324817452352729
16,0.0003160493827160493827160493828,32,0.7802659952353715
17,0.0003567901234567901234567901235,34,-0.5692416034862355
18,0.0004,36,-4.2684776968363884
19,0.0004456790123456790123456790123,38,-1.5480402754931883
20,0.0004938271604938271604938271604,40,-4.5107273889985064
21,0.0005444444444444444444444444443,42,-0.8619393656125766
22,0.0005975308641975308641975308640,44,-0.6384352687508469
23,0.0006530864197530864197530864200,46,3.055622012890821
24,0.0007111111111111111111111111113,48,-4.822716698461745
25,0.0007716049382716049382716049384,50,-0.08360224309782843
26,0.0008345679012345679012345679013,52,2.9275261683490794
27,0.0009,54,4.840888613921126
28,0.0009679012345679012345679012345,56,-3.071711798192337
29,0.001038271604938271604938271605,58,0.4260442877886059
30,0.001111111111111111111111111111,60,3.8393702616695156
31,0.001186419753086419753086419753,62,1.4139201208113208
32,0.001264197530864197530864197531,64,3.4316060433029576
33,0.001344444444444444444444444445,66,6.680977657810787
34,0.001427160493827160493827160494,68,2.1554638694498185
35,0.001512345679012345679012345679,70,-0.6237761222793514
36,0.0016,72,2.730493118484694
37,0.001690123456790123456790123457,74,0.18206932640143686
38,0.001782716049382716049382716049,76,-3.617646391982657
39,0.001877777777777777777777777777,78,-1.1727790520528838
40,0.001975308641975308641975308642,80,3.0158650501660698
41,0.002075308641975308641975308642,82,-4.190714019878277
42,0.002177777777777777777777777778,84,-2.789240636646192
43,0.002282716049382716049382716050,86,0.6054186118748286
44,0.002390123456790123456790123457,88,2.2295210870305895
45,0.0025,90,3.304182480712211
46,0.002612345679012345679012345679,92,2.8779288881655902
47,0.002727160493827160493827160494,94,0.21427645743009663
48,0.002844444444444444444444444444,96,1.5219693514303279
49,0.002964197530864197530864197530,98,-4.0658681292126415
50,0.003086419753086419753086419754,100,-0.5424606719700289
51,0.003211111111111111111111111111,102,-2.389551307321487
52,0.003338271604938271604938271605,104,0.2734496579058873
53,0.003467901234567901234567901235,106,2.742070965830848
54,0.0036,108,-0.8532042088410111
55,0.003734567901234567901234567901,110,0.7023811505733495
56,0.003871604938271604938271604938,112,-2.009990836720827
57,0.004011111111111111111111111111,114,1.491303504340974
58,0.004153086419753086419753086419,116,2.4468262220836134
59,0.004297530864197530864197530865,118,-2.1000027206013923
60,0.004444444444444444444444444445,120,-2.6444161675063613
61,0.004593827160493827160493827161,122,-0.878908707123044
62,0.004745679012345679012345679012,124,-0.2506549113997326
63,0.0049,126,-1.1038509819145752
64,0.005056790123456790123456790123,128,-2.0212216694264136
65,0.005216049382716049382716049382,130,1.1617335523482222
66,0.005377777777777777777777777777,132,2.893123307897766
67,0.005541975308641975308641975308,134,-6.16220397657465
68,0.005708641975308641975308641976,136,0.03430440411627756
69,0.005877777777777777777777777778,138,-2.8652342331615928
70,0.006049382716049382716049382716,140,-0.630267664771823
71,0.006223456790123456790123456790,142,-0.04705661939412019
72,0.0064,144,0.17681285708557665
73,0.006579012345679012345679012345,146,4.039107314668725
74,0.006760493827160493827160493827,148,-3.6776824981921936
75,0.006944444444444444444444444444,150,-1.254163417705819
76,0.007130864197530864197530864197,152,1.7948450481302354
77,0.007319753086419753086419753087,154,-1.294306422642915
78,0.007511111111111111111111111112,156,-2.551856376552165
79,0.007704938271604938271604938272,158,-3.2917510820934024
80,0.007901234567901234567901234568,160,0.02184689958426553
81,0.0081,162,0.8771282351462656
82,0.008301234567901234567901234568,164,-0.9459084331294292
83,0.008504938271604938271604938271,166,-0.07962026722362207
84,0.008711111111111111111111111110,168,-0.6548522218299622
85,0.008919753086419753086419753086,170,-1.4078464262604582
86,0.009130864197530864197530864198,172,-0.18890028752691648
87,0.009344444444444444444444444445,174,1.8773311106574704
88,0.009560493827160493827160493828,176,0.22440963257615207
89,0.009779012345679012345679012346,178,-0.7039625508173375
90,0.01,180,2.275009251617446
91,0.01022345679012345679012345679,182,2.3044703298741114
92,0.01044938271604938271604938271,184,1.1627395999712475
93,0.01067777777777777777777777777,186,2.767192321852679
94,0.01090864197530864197530864197,188,2.2840793954677077
95,0.01114197530864197530864197532,190,-0.5952923015947418
96,0.01137777777777777777777777778,192,-1.90538114641285
97,0.01161604938271604938271604939,194,0.9736739866258216
98,0.01185679012345679012345679013,196,-2.213294367286865
99,0.0121,198,-1.6323082865181207
100,0.01234567901234567901234567901,200,-1.2132154196136815
101,0.01259382716049382716049382716,202,0.13589480241287274
102,0.01284444444444444444444444444,204,-1.9385589221180175
103,0.01309753086419753086419753085,206,-0.6806072306670119
104,0.01335308641975308641975308643,208,-0.9396897955154099
105,0.01361111111111111111111111112,210,0.12332591542589688
106,0.01387160493827160493827160494,212,-2.8276826777540274
107,0.01413456790123456790123456790,214,-1.1688488912571633
108,0.0144,216,-3.7395774368591788
109,0.01466790123456790123456790123,218,-1.4303609763056906
110,0.01493827160493827160493827160,220,-0.25661091800001484
111,0.01521111111111111111111111110,222,0.10281895878814411
112,0.01548641975308641975308641974,224,-0.7628847829289872
113,0.01576419753086419753086419754,226,0.4915682140924171
114,0.01604444444444444444444444445,228,1.2462073539114742
115,0.01632716049382716049382716050,230,-2.508225973425211
116,0.01661234567901234567901234568,232,1.7722852141155334
117,0.0169,234,0.44494067102160045
118,0.01719012345679012345679012345,236,-1.687752702470812
119,0.01748271604938271604938271604,238,-3.7966951159512443
120,0.01777777777777777777777777777,240,0.21922491976468153
121,0.01807530864197530864197530863,242,1.6521526679358407
122,0.01837530864197530864197530865,244,-0.08302601250825117
123,0.01867777777777777777777777779,246,1.209010950070295
124,0.01898271604938271604938271606,248,2.296521692061247
125,0.01929012345679012345679012346,250,-0.49679871548188215
126,0.0196,252,-1.79169109067074
127,0.01991234567901234567901234568,254,-0.8966101453970073
128,0.02022716049382716049382716049,256,-3.4727140318009573
129,0.02054444444444444444444444443,258,-5.815568131845091
130,0.02086419753086419753086419752,260,1.695815249291639
131,0.02118641975308641975308641977,262,2.003166026369677
132,0.02151111111111111111111111112,264,1.6034675647311396
133,0.02183827160493827160493827161,266,0.04269703233900733
134,0.02216790123456790123456790124,268,1.8485462356541502
135,0.0225,270,-0.45544288358833557
136,0.02283456790123456790123456790,272,0.14974385591927375
137,0.02317160493827160493827160493,274,-0.3049134070548986
138,0.02351111111111111111111111110,276,4.01059763681029
139,0.02385308641975308641975308641,278,-3.0632851868176365
140,0.02419753086419753086419753088,280,0.3225677040745722
141,0.02454444444444444444444444445,282,1.4279144516376108
142,0.02489382716049382716049382717,284,0.35645121431241283
143,0.02524567901234567901234567902,286,4.770535496182199
144,0.0256,288,0.0945112589637685
145,0.02595679012345679012345679012,290,6.290712388401223
146,0.02631604938271604938271604938,292,0.7108985560917865
147,0.02667777777777777777777777777,294,-1.8896784373875495
148,0.02704197530864197530864197529,296,0.09430332662794874
149,0.02740864197530864197530864199,298,0.3998745286935902
150,0.02777777777777777777777777779,300,-2.9683366561230633
151,0.02814938271604938271604938272,302,-0.08238765102530854
152,0.02852345679012345679012345679,304,-1.9309722258230613
153,0.0289,306,3.5843709280669636
154,0.02927901234567901234567901234,308,-3.2195070672473887
155,0.02966049382716049382716049382,310,-1.3925126165532193
156,0.03004444444444444444444444443,312,4.43205262752041
157,0.03043086419753086419753086418,314,-0.30230892791830133
158,0.03081975308641975308641975310,316,1.1239304040290938
159,0.03121111111111111111111111112,318,0.7352310416951682
160,0.03160493827160493827160493828,320,0.35649742164833476
161,0.03200123456790123456790123457,322,1.99842942443634
162,0.0324,324,-4.424423612396863
163,0.03280123456790123456790123456,326,-0.6620157979293182
164,0.03320493827160493827160493826,328,-3.6829124954115127
165,0.03361111111111111111111111110,330,5.21677439330768
166,0.03401975308641975308641975307,332,-1.5969624707765613
167,0.03443086419753086419753086421,334,2.3147148658165855
168,0.03484444444444444444444444446,336,3.264968535893153
169,0.03526049382716049382716049384,338,3.407049092335105
170,0.03567901234567901234567901235,340,2.2752262638172267
171,0.0361,342,-1.206855547230424
172,0.03652345679012345679012345679,344,-4.115953262369177
173,0.03694938271604938271604938271,346,0.9103654039217307
174,0.03737777777777777777777777776,348,-2.6880622018125275
175,0.03780864197530864197530864196,350,1.6236787715424148
176,0.03824197530864197530864197533,352,1.7907894678814025
177,0.03867777777777777777777777779,354,-2.069348160190291
178,0.03911604938271604938271604939,356,-4.187605081656695
179,0.03955679012345679012345679013,358,-2.3875589576264886
180,0.04,360,0.06812976644200244
181,0.04044567901234567901234567901,362,4.652845870688144
182,0.04089382716049382716049382715,364,0.8241240986380922
183,0.04134444444444444444444444443,366,2.602151791116467
184,0.04179753086419753086419753085,368,2.2513241757372846
185,0.04225308641975308641975308644,370,3.24080564924473
186,0.04271111111111111111111111112,372,0.21932168267784008
187,0.04317160493827160493827160495,374,3.4986091922330433
188,0.04363456790123456790123456791,376,2.358832216098246
189,0.0441,378,2.266948482291511
190,0.04456790123456790123456790123,380,1.3489669914643332
191,0.04503827160493827160493827160,382,2.3520837709607783
192,0.04551111111111111111111111110,384,0.8912462357529988
193,0.04598641975308641975308641973,386,-3.7635967602714624
194,0.04646419753086419753086419755,388,1.4403486996963704
195,0.04694444444444444444444444446,390,-2.0142160737945773
196,0.04742716049382716049382716050,392,1.4467477209076878
197,0.04791234567901234567901234568,394,0.07167838644994085
198,0.0484,396,-2.0570510723124906
199,0.04889012345679012345679012345,398,-2.658361497689797
200,0.04938271604938271604938271604,400,3.066110853468114
201,0.04987777777777777777777777776,402,-2.292651559694947
202,0.05037530864197530864197530862,404,0.026376690684944522
203,0.05087530864197530864197530866,406,1.933966226849991
204,0.05137777777777777777777777779,408,-1.815804679504592
205,0.05188271604938271604938271606,410,-0.8187023459482569
206,0.05239012345679012345679012346,412,3.5907253787767366
207,0.0529,414,1.1552791169071663
208,0.05341234567901234567901234567,416,-0.2588629762438664
209,0.05392716049382716049382716048,418,-0.030925285949951527
210,0.05444444444444444444444444443,420,4.427488860094322
211,0.05496419753086419753086419751,422,1.204679685949154
212,0.05548641975308641975308641977,424,-1.0576838024989013
213,0.05601111111111111111111111113,426,2.652778418690664
214,0.05653827160493827160493827162,428,4.166211740362613
215,0.05706790123456790123456790124,430,0.002695968368498545
216,0.0576,432,-1.9531509011094845
217,0.05813456790123456790123456790,434,-0.2527747219402273
218,0.05867160493827160493827160493,436,2.3439593649577914
219,0.05921111111111111111111111109,438,0.5457808477299391
220,0.05975308641975308641975308640,440,4.405932990407523
221,0.06029753086419753086419753089,442,-6.376383541575725
222,0.06084444444444444444444444446,444,-3.278903541025716
223,0.06139382716049382716049382717,446,0.5017425345758179
224,0.06194567901234567901234567902,448,-1.300499042793832
225,0.0625,450,0.8866951258640279
226,0.06305679012345679012345679012,452,5.10524196412252
227,0.06361604938271604938271604937,454,-4.3686949381673985
228,0.06417777777777777777777777776,456,-1.2051487268782335
229,0.06474197530864197530864197529,458,-1.203669373115593
230,0.06530864197530864197530864200,460,-1.9015692499414079
231,0.06587777777777777777777777779,462,-0.26766431349349773
232,0.06644938271604938271604938273,464,2.587287138874995
233,0.06702345679012345679012345680,466,0.8922662804564302
234,0.0676,468,-0.480605397888608
235,0.06817901234567901234567901234,470,0.7920809937867187
236,0.06876049382716049382716049382,472,-3.7162047049090186
237,0.06934444444444444444444444443,474,-0.8496957079175548
238,0.06993086419753086419753086417,476,0.4296591277914856
239,0.07051975308641975308641975311,478,-5.899114474078297
240,0.07111111111111111111111111113,480,2.17975276272542
241,0.07170493827160493827160493828,482,-1.1634187450366316
242,0.07230123456790123456790123457,484,2.7677871820707103
243,0.0729,486,-2.754893027324965
244,0.07350123456790123456790123456,488,-1.2162711708206793
245,0.07410493827160493827160493826,490,-0.6255070041890944
246,0.07471111111111111111111111109,492,-2.604114104947624
247,0.07531975308641975308641975306,494,1.153945481694772
248,0.07593086419753086419753086422,496,-3.4611153789761446
249,0.07654444444444444444444444446,498,3.813449681112106
250,0.07716049382716049382716049384,500,-0.31209509994199763
251,0.07777901234567901234567901235,502,2.4189668677292917
252,0.0784,504,3.09096897327561
253,0.07902345679012345679012345678,506,-1.2267626570759536
254,0.07964938271604938271604938270,508,-1.1237759749096665
255,0.08027777777777777777777777776,510,-2.227772364832523
256,0.08090864197530864197530864195,512,-2.990450131420512
257,0.08154197530864197530864197533,514,2.329553900666061
258,0.08217777777777777777777777780,516,-2.940243686162993
259,0.08281604938271604938271604940,518,-4.3775927100876775
260,0.08345679012345679012345679013,520,-1.3595380166891453
261,0.0841,522,-0.7258840925132708
262,0.08474567901234567901234567901,524,-2.471807204643262
263,0.08539382716049382716049382715,526,-0.23002683231448443
264,0.08604444444444444444444444442,528,3.3130713695803196
265,0.08669753086419753086419753084,530,1.4085079169096828
266,0.08735308641975308641975308645,532,3.3958733756276316
267,0.08801111111111111111111111113,534,0.81886874770666
268,0.08867160493827160493827160495,536,-0.03782424942257034
269,0.08933456790123456790123456791,538,-1.4798266505526194
270,0.09,540,-1.1290347263170293
271,0.09066790123456790123456790123,542,-2.9773382297227995
272,0.09133827160493827160493827159,544,-0.3523807908470489
273,0.09201111111111111111111111109,546,-3.3289358576723136
274,0.09268641975308641975308641973,548,3.1397170884217873
275,0.09336419753086419753086419756,550,-3.0185670679874304
276,0.09404444444444444444444444446,552,-1.0228686127595075
277,0.09472716049382716049382716051,554,-1.2193354350713654
278,0.09541234567901234567901234569,556,3.37727469996085
279,0.0961,558,1.8756072280189429
280,0.09679012345679012345679012345,560,-5.815982831628204
281,0.09748271604938271604938271604,562,2.842045449415977
282,0.09817777777777777777777777776,564,-4.507949055388196
283,0.09887530864197530864197530861,566,-3.19608524974766
284,0.09957530864197530864197530867,568,2.423402193653789
285,0.1002777777777777777777777778,570,-1.6881402659893552
286,0.1009827160493827160493827161,572,0.6121202919126336
287,0.1016901234567901234567901235,574,0.5756949888581312
288,0.1024,576,-1.8616335941358053
289,0.1031123456790123456790123457,578,-0.08759187008684462
290,0.1038271604938271604938271605,580,0.6361832671648958
291,0.1045444444444444444444444444,582,2.149068267967154
292,0.1052641975308641975308641975,584,1.5600284740978891
293,0.1059864197530864197530864198,586,-1.4361366815750733
294,0.1067111111111111111111111111,588,1.5098026258569126
295,0.1074382716049382716049382716,590,0.46109785369743717
296,0.1081679012345679012345679012,592,0.8697515584289406
297,0.1089,594,5.22678226291568
298,0.1096345679012345679012345679,596,-0.9595921941200888
299,0.1103716049382716049382716049,598,0.06594233689555602
300,0.1111111111111111111111111111,600,3.1053402412748303
301,0.1118530864197530864197530864,602,-2.7721921755572585
302,0.1125975308641975308641975309,604,0.7430991172648674
303,0.1133444444444444444444444445,606,0.8301143885210347
304,0.1140938271604938271604938272,608,1.9721225953159978
305,0.1148456790123456790123456790,610,0.3588503482807736
306,0.1156,612,-0.8770859227543983
307,0.1163567901234567901234567901,614,-1.7249696764776197
308,0.1171160493827160493827160494,616,8.404902177185617
309,0.1178777777777777777777777778,618,-1.441337343840788
310,0.1186419753086419753086419753,620,-1.3478303253109443
311,0.1194086419753086419753086420,622,2.9285829423001166
312,0.1201777777777777777777777778,624,-4.021941911417635
313,0.1209493827160493827160493827,626,2.5044219982973153
314,0.1217234567901234567901234568,628,-3.0133644867976406
315,0.1225,630,-1.0770699126692418
316,0.1232790123456790123456790123,632,-0.10900978264472998
317,0.1240604938271604938271604938,634,0.3261668799910886
318,0.1248444444444444444444444444,636,-2.2575696431926024
319,0.1256308641975308641975308642,638,-1.330102896859326
320,0.1264197530864197530864197531,640,0.57467901784446
321,0.1272111111111111111111111111,642,-1.0870143753948514
322,0.1280049382716049382716049383,644,0.36368011753532004
323,0.1288012345679012345679012346,646,0.5564198755817034
324,0.1296,648,2.2999516985326913
325,0.1304012345679012345679012346,650,1.7273256561159767
326,0.1312049382716049382716049383,652,0.8520268582129003
327,0.1320111111111111111111111111,654,-0.3869025017898567
328,0.1328197530864197530864197531,656,-1.0579518311600928
329,0.1336308641975308641975308642,658,2.347665905065857
330,0.1344444444444444444444444445,660,1.1875997716592845
331,0.1352604938271604938271604938,662,-4.212548707104055
332,0.1360790123456790123456790124,664,-1.8466408188841799
333,0.1369,666,1.537010818670942
334,0.1377234567901234567901234568,668,1.8688476324613434
335,0.1385493827160493827160493827,670,-6.60116155535422
336,0.1393777777777777777777777778,672,0.8086779867232423
337,0.1402086419753086419753086419,674,2.7676563621217523
338,0.1410419753086419753086419753,676,-1.3157081644244601
339,0.1418777777777777777777777778,678,3.5587381608678235
340,0.1427160493827160493827160494,680,1.7084931886331345
341,0.1435567901234567901234567901,682,0.46963819865363166
342,0.1444,684,-0.3584493776963532
343,0.1452456790123456790123456790,686,-0.5355145331298535
344,0.1460938271604938271604938271,688,-0.1247091294833642
345,0.1469444444444444444444444444,690,-1.120910529408008
346,0.1477975308641975308641975308,692,4.74109132704357
347,0.1486530864197530864197530865,694,4.988243623821976
348,0.1495111111111111111111111111,696,-1.5586244112072132
349,0.1503716049382716049382716050,698,-0.3324776916964401
350,0.1512345679012345679012345679,700,-3.3758359693275892
351,0.1521,702,5.7426108504185205
352,0.1529679012345679012345679012,704,0.1011967179279425
353,0.1538382716049382716049382716,706,-4.327493769314431
354,0.1547111111111111111111111111,708,-2.9417286622824
