,Mass (amu),Time (microseconds),Amplitude
0,0,0,2.400152597981629
1,0.000001234567901234567901234567901,2,-0.1875825322649558
2,0.000004938271604938271604938271604,4,-1.9481479524741467
3,0.00001111111111111111111111111111,6,-0.8481667283019126
4,0.00001975308641975308641975308642,8,0.7346959313117164
5,0.00003086419753086419753086419754,10,-1.9006362990777235
6,0.00004444444444444444444444444445,12,5.342115497751061
7,0.00006049382716049382716049382716,14,2.221429263277722
8,0.00007901234567901234567901234568,16,-4.204826408219806
9,0.0001,18,-0.8173861345528318
10,0.0001234567901234567901234567901,20,-3.0671006622774484
11,0.0001493827160493827160493827160,22,1.8465874723183944
12,0.0001777777777777777777777777777,24,-2.847036372854372
13,0.0002086419753086419753086419752,26,2.880686572693369
14,0.0002419753086419753086419753088,28,1.7008053758296713
15,0.0002777777777777777777777777779,30,2.1234027577218204
16,0.0003160493827160493827160493828,32,1.088406609608605
17,0.0003567901234567901234567901235,34,-6.608655667061762
18,0.0004,36,1.81952901692938
19,0.0004456790123456790123456790123,38,2.027321983981084
20,0.0004938271604938271604938271604,40,-1.0709206448016457
21,0.0005444444444444444444444444443,42,0.41528830255109206
22,0.0005975308641975308641975308640,44,-3.0423968763643368
23,0.0006530864197530864197530864200,46,0.03318809892505859
24,0.0007111111111111111111111111113,48,3.400032233378694
25,0.0007716049382716049382716049384,50,0.939196452020173
26,0.0008345679012345679012345679013,52,0.3082414787006636
27,0.0009,54,0.5107897255755194
28,0.0009679012345679012345679012345,56,-0.7606971086110235
29,0.001038271604938271604938271605,58,-3.6896529285852964
30,0.001111111111111111111111111111,60,0.7463438178795861
31,0.001186419753086419753086419753,62,-0.9027419122200598
32,0.001264197530864197530864197531,64,2.6826268097191197
33,0.001344444444444444444444444445,66,-1.8731394168948752
34,0.001427160493827160493827160494,68,-1.9004501148823607
35,0.001512345679012345679012345679,70,-0.9942513524054618
36,0.0016,72,-1.280117660486088
37,0.001690123456790123456790123457,74,-4.050876525957076
38,0.001782716049382716049382716049,76,2.2500615502778722
39,0.001877777777777777777777777777,78,1.6528032646929964
40,0.001975308641975308641975308642,80,-0.23310220320638667
41,0.002075308641975308641975308642,82,1.263623710831873
42,0.002177777777777777777777777778,84,-3.7202552910184976
43,0.002282716049382716049382716050,86,-1.0444714517456046
44,0.002390123456790123456790123457,88,2.414933351240135
45,0.0025,90,0.7383287189785978
46,0.002612345679012345679012345679,92,1.598417226931472
47,0.002727160493827160493827160494,94,-1.33517802323313
48,0.002844444444444444444444444444,96,0.1481099630134077
49,0.002964197530864197530864197530,98,6.333459048345142
50,0.003086419753086419753086419754,100,-0.9466624252548793
51,0.003211111111111111111111111111,102,-0.04291410298211722
52,0.003338271604938271604938271605,104,3.3739159985219387
53,0.003467901234567901234567901235,106,-1.2060383753933968
54,0.0036,108,1.5670242203978646
55,0.003734567901234567901234567901,110,1.0007591257800401
56,0.003871604938271604938271604938,112,-2.0414119187577056
57,0.004011111111111111111111111111,114,0.9552487631930654
58,0.004153086419753086419753086419,116,-0.9960072702866796
59,0.004297530864197530864197530865,118,0.48813711779354096
60,0.004444444444444444444444444445,120,0.20976464754643823
61,0.004593827160493827160493827161,122,2.0203042647019034
62,0.004745679012345679012345679012,124,0.15945898089526608
63,0.0049,126,0.5749106299232266
64,0.005056790123456790123456790123,128,0.9944502473811433
65,0.005216049382716049382716049382,130,2.4485466475660034
66,0.005377777777777777777777777777,132,-0.6733942699289424
67,0.005541975308641975308641975308,134,-0.1485807788739819
68,0.005708641975308641975308641976,136,0.8156217588875946
69,0.005877777777777777777777777778,138,0.949099779633884
70,0.006049382716049382716049382716,140,2.9433383471465113
71,0.006223456790123456790123456790,142,-2.8218679576005945
72,0.0064,144,0.6636738159571559
73,0.006579012345679012345679012345,146,-0.08809843876521509
74,0.006760493827160493827160493827,148,-0.8353593678449388
75,0.006944444444444444444444444444,150,-0.9409227360777899
76,0.007130864197530864197530864197,152,1.2234218306612987
77,0.007319753086419753086419753087,154,5.234440666131623
78,0.007511111111111111111111111112,156,-2.3720553544311733
79,0.007704938271604938271604938272,158,0.41115317509562394
80,0.007901234567901234567901234568,160,2.083802034425267
81,0.0081,162,0.1298663065832346
82,0.008301234567901234567901234568,164,-0.9096572360325642
83,0.008504938271604938271604938271,166,0.9990433613429395
84,0.008711111111111111111111111110,168,-1.3418139871602721
85,0.008919753086419753086419753086,170,1.8983331359620568
86,0.009130864197530864197530864198,172,1.5164581343342476
87,0.009344444444444444444444444445,174,-1.438061000721636
88,0.009560493827160493827160493828,176,-2.9732846091960914
89,0.009779012345679012345679012346,178,3.378817500695309
90,0.01,180,2.0770147873703833
91,0.01022345679012345679012345679,182,1.9993299440531345
92,0.01044938271604938271604938271,184,-0.32376868699579886
93,0.01067777777777777777777777777,186,1.8786774936120418
94,0.01090864197530864197530864197,188,-0.2786135892509124
95,0.01114197530864197530864197532,190,0.8294829771916582
96,0.01137777777777777777777777778,192,1.8808464244076457
97,0.01161604938271604938271604939,194,-1.0432952512902958
98,0.01185679012345679012345679013,196,-1.3845276376317162
99,0.0121,198,-2.75648037872037
100,0.01234567901234567901234567901,200,1.7662820799598842
101,0.01259382716049382716049382716,202,-0.6947449981432641
102,0.01284444444444444444444444444,204,0.1420217364163893
103,0.01309753086419753086419753085,206,2.26512028788021
104,0.01335308641975308641975308643,208,-5.694196806483472
105,0.01361111111111111111111111112,210,-3.135078447596568
106,0.01387160493827160493827160494,212,2.382224480280527
107,0.01413456790123456790123456790,214,-1.0404524733519382
108,0.0144,216,-3.691163125002681
109,0.01466790123456790123456790123,218,0.701841710292171
110,0.01493827160493827160493827160,220,1.5943808188218092
111,0.01521111111111111111111111110,222,-1.7235134098819802
112,0.01548641975308641975308641974,224,0.6600903710077644
113,0.01576419753086419753086419754,226,1.5212203751780307
114,0.01604444444444444444444444445,228,1.1138211555145645
115,0.01632716049382716049382716050,230,-1.1466282488944801
116,0.01661234567901234567901234568,232,-2.1160917276532625
117,0.0169,234,-0.0021798269255075397
118,0.01719012345679012345679012345,236,-3.5445581538357356
119,0.01748271604938271604938271604,238,5.058606428699602
120,0.01777777777777777777777777777,240,0.22350590167137538
121,0.01807530864197530864197530863,242,-2.1518682522150674
122,0.01837530864197530864197530865,244,-0.7162974298529459
123,0.01867777777777777777777777779,246,1.5501519460785758
124,0.01898271604938271604938271606,248,-1.0189514200366034
125,0.01929012345679012345679012346,250,-2.963686862772896
126,0.0196,252,1.4986374787145977
127,0.01991234567901234567901234568,254,0.9497437205967287
128,0.02022716049382716049382716049,256,0.3555663530679866
129,0.02054444444444444444444444443,258,4.324636092330339
130,0.02086419753086419753086419752,260,0.2699459075974364
131,0.02118641975308641975308641977,262,-0.0864177546782795
132,0.02151111111111111111111111112,264,0.3848870474291799
133,0.02183827160493827160493827161,266,-5.648654478392286
134,0.02216790123456790123456790124,268,-4.118905632505909
135,0.0225,270,2.155523429344093
136,0.02283456790123456790123456790,272,-0.397101025957048
137,0.02317160493827160493827160493,274,0.14531390592916113
138,0.02351111111111111111111111110,276,-0.10942374897713662
139,0.02385308641975308641975308641,278,-0.667784524847643
140,0.02419753086419753086419753088,280,-1.9501983822628637
141,0.02454444444444444444444444445,282,-5.045263215644955
142,0.02489382716049382716049382717,284,-0.14312527510054315
143,0.02524567901234567901234567902,286,2.1622050283249123
144,0.0256,288,-2.304005494250879
145,0.02595679012345679012345679012,290,4.7544811478593925
146,0.02631604938271604938271604938,292,-3.9881742185489797
147,0.02667777777777777777777777777,294,-1.8904625044744217
148,0.02704197530864197530864197529,296,0.7170047879026133
149,0.02740864197530864197530864199,298,5.731330403966226
150,0.02777777777777777777777777779,300,-2.3432323652854063
151,0.02814938271604938271604938272,302,0.6516218359294874
152,0.02852345679012345679012345679,304,-0.4032239031155473
153,0.0289,306,0.9660264606603766
154,0.02927901234567901234567901234,308,0.9125973841023012
155,0.02966049382716049382716049382,310,-1.2609340877675521
156,0.03004444444444444444444444443,312,0.3443917005368617
157,0.03043086419753086419753086418,314,-0.7705068653765789
158,0.03081975308641975308641975310,316,-1.8655701628553283
159,0.03121111111111111111111111112,318,-0.538159227231182
160,0.03160493827160493827160493828,320,-0.27543941995351817
161,0.03200123456790123456790123457,322,-1.8910627184284499
162,0.0324,324,-2.1841678445904704
163,0.03280123456790123456790123456,326,-2.9389090473871184
164,0.03320493827160493827160493826,328,-0.5878891361354012
165,0.03361111111111111111111111110,330,1.2896910395921146
166,0.03401975308641975308641975307,332,-1.9368667386288336
167,0.03443086419753086419753086421,334,-0.7143017336810721
168,0.03484444444444444444444444446,336,-0.0003697902722453145
169,0.03526049382716049382716049384,338,3.6676040563693224
170,0.03567901234567901234567901235,340,-0.262276379684677
171,0.0361,342,-2.3985777634093206
172,0.03652345679012345679012345679,344,0.6568285136313696
173,0.03694938271604938271604938271,346,-0.7897016726142109
174,0.03737777777777777777777777776,348,-3.751555695275737
175,0.03780864197530864197530864196,350,-0.09791763379887887
176,0.03824197530864197530864197533,352,-1.4781351071724096
177,0.03867777777777777777777777779,354,-2.0216415251173974
178,0.03911604938271604938271604939,356,0.661203388880585
179,0.03955679012345679012345679013,358,-3.921028693153838
180,0.04,360,-3.5240206597898034
181,0.04044567901234567901234567901,362,4.176359244391764
182,0.04089382716049382716049382715,364,-0.7420264082150145
183,0.04134444444444444444444444443,366,-0.2742238424637692
184,0.04179753086419753086419753085,368,-3.996933868693649
185,0.04225308641975308641975308644,370,-0.5136726194573852
186,0.04271111111111111111111111112,372,0.5261958592639289
187,0.04317160493827160493827160495,374,-2.733036108605941
188,0.04363456790123456790123456791,376,-1.0205222038634667
189,0.0441,378,-0.14629264674329082
190,0.04456790123456790123456790123,380,1.7231335234621596
191,0.04503827160493827160493827160,382,0.793194229428017
192,0.04551111111111111111111111110,384,3.150428187777625
193,0.04598641975308641975308641973,386,-0.641653438366733
194,0.04646419753086419753086419755,388,-3.087289742941589
195,0.04694444444444444444444444446,390,3.429957952998208
196,0.04742716049382716049382716050,392,2.1522130463237636
197,0.04791234567901234567901234568,394,-2.231474631747416
198,0.0484,396,-2.9051222073598773
199,0.04889012345679012345679012345,398,-0.39765770190530936
200,0.04938271604938271604938271604,400,0.018474361025466193
201,0.04987777777777777777777777776,402,0.35626035931931443
202,0.05037530864197530864197530862,404,-0.49311116356344525
203,0.05087530864197530864197530866,406,2.214992742189632
204,0.05137777777777777777777777779,408,-0.6367745042963975
205,0.05188271604938271604938271606,410,3.8461573024824753
206,0.05239012345679012345679012346,412,2.3712100387947777
207,0.0529,414,0.2988376800024896
208,0.05341234567901234567901234567,416,0.5559504676815495
209,0.05392716049382716049382716048,418,-1.4392635934425624
210,0.05444444444444444444444444443,420,-1.0432486768694371
211,0.05496419753086419753086419751,422,4.287134063053199
212,0.05548641975308641975308641977,424,-1.9596937158902024
213,0.05601111111111111111111111113,426,-5.249880110364601
214,0.05653827160493827160493827162,428,2.90138096040078
215,0.05706790123456790123456790124,430,-1.529425710028253
216,0.0576,432,2.512578502581475
217,0.05813456790123456790123456790,434,4.995524904027823
218,0.05867160493827160493827160493,436,1.4156811736632078
219,0.05921111111111111111111111109,438,-0.08798697616532751
220,0.05975308641975308641975308640,440,3.3064640797976317
221,0.06029753086419753086419753089,442,-1.1411545397822602
222,0.06084444444444444444444444446,444,-0.6917121345589322
223,0.06139382716049382716049382717,446,-3.2600803722555436
224,0.06194567901234567901234567902,448,-3.0452450127373534
225,0.0625,450,2.83249817029292
226,0.06305679012345679012345679012,452,1.077684318196106
227,0.06361604938271604938271604937,454,-0.1593573714646827
228,0.06417777777777777777777777776,456,1.5219157703593489
229,0.06474197530864197530864197529,458,-1.6338570818828804
230,0.06530864197530864197530864200,460,-2.4777790630555714
231,0.06587777777777777777777777779,462,2.721879741353354
232,0.06644938271604938271604938273,464,-0.9198131526029408
233,0.06702345679012345679012345680,466,0.7784126051094482
234,0.0676,468,0.14915473356017103
235,0.06817901234567901234567901234,470,1.4512829859625125
236,0.06876049382716049382716049382,472,1.8001454601113036
237,0.06934444444444444444444444443,474,2.2062449840336074
238,0.06993086419753086419753086417,476,1.101081219829082
239,0.07051975308641975308641975311,478,-1.8728296418886816
240,0.07111111111111111111111111113,480,-2.484476748163895
241,0.07170493827160493827160493828,482,-4.345366336757296
242,0.07230123456790123456790123457,484,-1.8284160873687834
243,0.0729,486,-2.9900286767340147
244,0.07350123456790123456790123456,488,-0.966271284784169
245,0.07410493827160493827160493826,490,-2.357008606920967
246,0.07471111111111111111111111109,492,3.5915868192239695
247,0.07531975308641975308641975306,494,1.7089323831424585
248,0.07593086419753086419753086422,496,2.990387463169256
249,0.07654444444444444444444444446,498,-3.2615716918194355
250,0.07716049382716049382716049384,500,1.2422046073093722
251,0.07777901234567901234567901235,502,-3.357362964086206
252,0.0784,504,-2.320412674807854
253,0.07902345679012345679012345678,506,1.8021624903758033
254,0.07964938271604938271604938270,508,-1.086409371860777
255,0.08027777777777777777777777776,510,0.2996310374085092
256,0.08090864197530864197530864195,512,1.063005297863345
257,0.08154197530864197530864197533,514,-2.799244437752691
258,0.08217777777777777777777777780,516,-1.2563671391205495
259,0.08281604938271604938271604940,518,1.1108253249480908
260,0.08345679012345679012345679013,520,2.3291310809887125
261,0.0841,522,-1.2824346015203087
262,0.08474567901234567901234567901,524,3.2085804042121913
263,0.08539382716049382716049382715,526,0.5168782425178368
264,0.08604444444444444444444444442,528,-0.7840174751491757
265,0.08669753086419753086419753084,530,5.222970845827122
266,0.08735308641975308641975308645,532,-4.142754796755879
267,0.08801111111111111111111111113,534,1.0730608243998292
268,0.08867160493827160493827160495,536,0.39995371072990527
269,0.08933456790123456790123456791,538,-0.6560838252053535
270,0.09,540,-2.013586914298854
271,0.09066790123456790123456790123,542,4.583931655391016
272,0.09133827160493827160493827159,544,1.8446935980387866
273,0.09201111111111111111111111109,546,0.40083635911083426
274,0.09268641975308641975308641973,548,-1.1143008320975059
275,0.09336419753086419753086419756,550,1.5869279814814545
276,0.09404444444444444444444444446,552,-0.44658947253629866
277,0.09472716049382716049382716051,554,-0.3904731226744499
278,0.09541234567901234567901234569,556,-1.5460054023048697
279,0.0961,558,1.7082594361321164
280,0.09679012345679012345679012345,560,1.915503044973335
281,0.09748271604938271604938271604,562,-1.1726583697239805
282,0.09817777777777777777777777776,564,1.6689152299174919
283,0.09887530864197530864197530861,566,0.88013762274361
284,0.09957530864197530864197530867,568,-2.256005989946271
285,0.1002777777777777777777777778,570,-2.6294134518395187
286,0.1009827160493827160493827161,572,-0.31998464392253667
287,0.1016901234567901234567901235,574,-0.4462357540336725
288,0.1024,576,0.9570521909802547
289,0.1031123456790123456790123457,578,-2.907510970255214
290,0.1038271604938271604938271605,580,-1.4092232240065878
291,0.1045444444444444444444444444,582,1.4293454281376679
292,0.1052641975308641975308641975,584,-1.161267537838961
293,0.1059864197530864197530864198,586,0.14900576493807619
294,0.1067111111111111111111111111,588,3.2045241706409264
295,0.1074382716049382716049382716,590,2.848162194129948
296,0.1081679012345679012345679012,592,-1.4195951228702304
297,0.1089,594,0.5078380554126348
298,0.1096345679012345679012345679,596,1.2952681585121777
299,0.1103716049382716049382716049,598,3.8923933778227706
300,0.1111111111111111111111111111,600,2.7038218545844384
301,0.1118530864197530864197530864,602,1.4198955101383641
302,0.1125975308641975308641975309,604,0.22678830147442045
303,0.1133444444444444444444444445,606,-1.8761313643722792
304,0.1140938271604938271604938272,608,2.9295202553843245
305,0.1148456790123456790123456790,610,-4.00139297270454
306,0.1156,612,2.7843969854084536
307,0.1163567901234567901234567901,614,-0.6111614866021639
308,0.1171160493827160493827160494,616,1.1672389778078542
309,0.1178777777777777777777777778,618,-4.841785616322226
310,0.1186419753086419753086419753,620,1.7394995558973965
311,0.1194086419753086419753086420,622,0.10486530813199017
312,0.1201777777777777777777777778,624,1.803338363317301
313,0.1209493827160493827160493827,626,-0.9024604018072057
314,0.1217234567901234567901234568,628,-3.0551501009991666
315,0.1225,630,2.701449948675132
316,0.1232790123456790123456790123,632,0.8962203944088519
317,0.1240604938271604938271604938,634,0.487910954628674
318,0.1248444444444444444444444444,636,-0.9067295999456649
319,0.1256308641975308641975308642,638,-2.396006048048824
320,0.1264197530864197530864197531,640,-1.6887409637235848
321,0.1272111111111111111111111111,642,0.030992237084949137
322,0.1280049382716049382716049383,644,-1.5232918883511164
323,0.1288012345679012345679012346,646,-3.4147547258994497
324,0.1296,648,-0.18669192440256946
325,0.1304012345679012345679012346,650,-0.5693111455167997
326,0.1312049382716049382716049383,652,1.2894574262529892
327,0.1320111111111111111111111111,654,-0.4993605328003241
328,0.1328197530864197530864197531,656,-3.8212069356322598
329,0.1336308641975308641975308642,658,1.2404092876406092
330,0.1344444444444444444444444445,660,-1.5623352204786884
331,0.1352604938271604938271604938,662,-3.1152988343060173
332,0.1360790123456790123456790124,664,-2.5621490869856047
333,0.1369,666,-4.1388986924393665
334,0.1377234567901234567901234568,668,1.8163734544163188
335,0.1385493827160493827160493827,670,-0.032264968007969706
336,0.1393777777777777777777777778,672,-0.6931911671452672
337,0.1402086419753086419753086419,674,2.132413902587698
338,0.1410419753086419753086419753,676,0.18609097951870185
339,0.1418777777777777777777777778,678,-0.1381815011698317
340,0.1427160493827160493827160494,680,1.2513708281382754
341,0.1435567901234567901234567901,682,0.8772440619126977
342,0.1444,684,-1.8471055724709917
343,0.1452456790123456790123456790,686,-2.5347947943793887
344,0.1460938271604938271604938271,688,-5.870508862744306
345,0.1469444444444444444444444444,690,0.39641772843943907
346,0.1477975308641975308641975308,692,0.5796593773216656
347,0.1486530864197530864197530865,694,-1.29242595317807
348,0.1495111111111111111111111111,696,-1.9480986905403253
349,0.1503716049382716049382716050,698,-6.458683560348212
350,0.1512345679012345679012345679,700,-0.2443502399609167
351,0.1521,702,1.1718078952136646
352,0.1529679012345679012345679012,704,1.3200946400773137
353,0.1538382716049382716049382716,706,0.964385089447269
354,0.1547111111111111111111111111,708,-0.2912868414961549
