,Mass (amu),Time (microseconds),Amplitude
0,0,0,-2.441473555478216
1,0.000001234567901234567901234567901,2,-2.17625229776348
2,0.000004938271604938271604938271604,4,1.3140508542652274
3,0.00001111111111111111111111111111,6,1.3526456441663317
4,0.00001975308641975308641975308642,8,-0.8656216462374995
5,0.00003086419753086419753086419754,10,0.014233891997408217
6,0.00004444444444444444444444444445,12,-3.134871406596412
7,0.00006049382716049382716049382716,14,0.08076899662985428
8,0.00007901234567901234567901234568,16,-0.7389406864154546
9,0.0001,18,-1.7279570492443084
10,0.0001234567901234567901234567901,20,3.4831579347070756
11,0.0001493827160493827160493827160,22,2.7739733995702633
12,0.0001777777777777777777777777777,24,-0.38896846365458915
13,0.0002086419753086419753086419752,26,-3.863989686462195
14,0.0002419753086419753086419753088,28,-0.11007727571901439
15,0.0002777777777777777777777777779,30,0.05588644722292395
16,0.0003160493827160493827160493828,32,2.762615542117349
17,0.0003567901234567901234567901235,34,0.4775142193427886
18,0.0004,36,-0.027484022249770427
19,0.0004456790123456790123456790123,38,-0.4657193144998303
20,0.0004938271604938271604938271604,40,0.5470975396668186
21,0.0005444444444444444444444444443,42,-0.008164439178352138
22,0.0005975308641975308641975308640,44,3.685688262387679
23,0.0006530864197530864197530864200,46,-3.0108266652242346
24,0.0007111111111111111111111111113,48,-0.5365841779672893
25,0.0007716049382716049382716049384,50,3.1095158952810604
26,0.0008345679012345679012345679013,52,3.875348707302212
27,0.0009,54,3.5510245603210313
28,0.0009679012345679012345679012345,56,-0.041062836273735887
29,0.001038271604938271604938271605,58,0.940943385164222
30,0.001111111111111111111111111111,60,3.6977876526614057
31,0.001186419753086419753086419753,62,2.7604034153856976
32,0.001264197530864197530864197531,64,-3.0894589697351003
33,0.001344444444444444444444444445,66,0.35984577041317245
34,0.001427160493827160493827160494,68,2.289568453282486
35,0.001512345679012345679012345679,70,0.6622595833254282
36,0.0016,72,-1.03467907667803
37,0.001690123456790123456790123457,74,-2.0671067580076476
38,0.001782716049382716049382716049,76,3.7612851573917077
39,0.001877777777777777777777777777,78,-3.184482414094845
40,0.001975308641975308641975308642,80,3.2526412739235733
41,0.002075308641975308641975308642,82,5.3521321622095765
42,0.002177777777777777777777777778,84,1.016128848690738
43,0.002282716049382716049382716050,86,3.376623571559057
44,0.002390123456790123456790123457,88,-5.628745071419816
45,0.0025,90,-3.0352924761428755
46,0.002612345679012345679012345679,92,-1.6577500104783207
47,0.002727160493827160493827160494,94,3.3173168356599128
48,0.002844444444444444444444444444,96,-0.29523099050177726
49,0.002964197530864197530864197530,98,-1.0281728054567003
50,0.003086419753086419753086419754,100,1.5697182195280517
51,0.003211111111111111111111111111,102,-0.9417509272664897
52,0.003338271604938271604938271605,104,1.1302200166771839
53,0.003467901234567901234567901235,106,1.216063056039124
54,0.0036,108,-1.7113595156876769
55,0.003734567901234567901234567901,110,2.391874813934417
56,0.003871604938271604938271604938,112,4.020655928477289
57,0.004011111111111111111111111111,114,0.3951345517047769
58,0.004153086419753086419753086419,116,0.42621873150790396
59,0.004297530864197530864197530865,118,-1.0028107590363542
60,0.004444444444444444444444444445,120,1.9544374970690015
61,0.004593827160493827160493827161,122,-1.6627610797680337
62,0.004745679012345679012345679012,124,-0.520743094891662
63,0.0049,126,2.251277696848012
64,0.005056790123456790123456790123,128,-2.187657741419866
65,0.005216049382716049382716049382,130,-1.1292388497528971
66,0.005377777777777777777777777777,132,0.7480584911156826
67,0.005541975308641975308641975308,134,0.11451633709201837
68,0.005708641975308641975308641976,136,-1.9853375751266573
69,0.005877777777777777777777777778,138,0.23704071537183102
70,0.006049382716049382716049382716,140,0.0648365269340168
71,0.006223456790123456790123456790,142,0.15712524928707403
72,0.0064,144,1.8798606295913178
73,0.006579012345679012345679012345,146,-0.5653386204110893
74,0.006760493827160493827160493827,148,-1.253076365577725
75,0.006944444444444444444444444444,150,-1.067095976650165
76,0.007130864197530864197530864197,152,1.659768183840044
77,0.007319753086419753086419753087,154,-0.33670444766998264
78,0.007511111111111111111111111112,156,0.7079468859646225
79,0.007704938271604938271604938272,158,4.452509355088089
80,0.007901234567901234567901234568,160,-3.45507156541619
81,0.0081,162,-3.3775990486764353
82,0.008301234567901234567901234568,164,0.36526138799736846
83,0.008504938271604938271604938271,166,0.8830162909744483
84,0.008711111111111111111111111110,168,0.9595545466789978
85,0.008919753086419753086419753086,170,-1.84786942788892
86,0.009130864197530864197530864198,172,3.391646583469639
87,0.009344444444444444444444444445,174,1.5495223434931715
88,0.009560493827160493827160493828,176,-3.3871841965924188
89,0.009779012345679012345679012346,178,0.5375058751885442
90,0.01,180,2.645909615650897
91,0.01022345679012345679012345679,182,0.7259056014232897
92,0.01044938271604938271604938271,184,1.2658663088527256
93,0.01067777777777777777777777777,186,-3.0154072877435274
94,0.01090864197530864197530864197,188,-0.947578590161838
95,0.01114197530864197530864197532,190,-1.7705488787860455
96,0.01137777777777777777777777778,192,4.804386132385727
97,0.01161604938271604938271604939,194,-0.35452313366442706
98,0.01185679012345679012345679013,196,-2.9666663504451534
99,0.0121,198,-2.831832328332863
100,0.01234567901234567901234567901,200,1.0679772461340402
101,0.01259382716049382716049382716,202,-2.051463456122336
102,0.01284444444444444444444444444,204,-1.9161891587945392
103,0.01309753086419753086419753085,206,0.8125066006230373
104,0.01335308641975308641975308643,208,-0.4116073750085998
105,0.01361111111111111111111111112,210,-1.7814174744573408
106,0.01387160493827160493827160494,212,1.050910007668438
107,0.01413456790123456790123456790,214,3.135777302587968
108,0.0144,216,-0.02885538821090396
109,0.01466790123456790123456790123,218,-3.1993520659905634
110,0.01493827160493827160493827160,220,4.089871643148795
111,0.01521111111111111111111111110,222,3.2663908527311367
112,0.01548641975308641975308641974,224,1.9674709669735428
113,0.01576419753086419753086419754,226,0.42820603493879594
114,0.01604444444444444444444444445,228,0.748116762718726
115,0.01632716049382716049382716050,230,0.17344113087283805
116,0.01661234567901234567901234568,232,0.9741243729090827
117,0.0169,234,-1.5157013767081584
118,0.01719012345679012345679012345,236,0.21608062997026214
119,0.01748271604938271604938271604,238,1.488150795889257
120,0.01777777777777777777777777777,240,-0.8245585556073604
121,0.01807530864197530864197530863,242,-2.388050364716936
122,0.01837530864197530864197530865,244,-3.3303560781505355
123,0.01867777777777777777777777779,246,3.2212127994530615
124,0.01898271604938271604938271606,248,-3.1678802249452964
125,0.01929012345679012345679012346,250,-2.9245088500739045
126,0.0196,252,1.1759245100845608
127,0.01991234567901234567901234568,254,-2.8173449392953374
128,0.02022716049382716049382716049,256,-0.386855907117174
129,0.02054444444444444444444444443,258,-2.3706654736973136
130,0.02086419753086419753086419752,260,-0.16424968308476579
131,0.02118641975308641975308641977,262,-3.5569818969213385
132,0.02151111111111111111111111112,264,-2.588363509594514
133,0.02183827160493827160493827161,266,-0.6649464998920932
134,0.02216790123456790123456790124,268,-0.12203253930791023
135,0.0225,270,-5.729929953421285
136,0.02283456790123456790123456790,272,-0.4201489910437197
137,0.02317160493827160493827160493,274,-3.916715106780211
138,0.02351111111111111111111111110,276,-0.4989613549443969
139,0.02385308641975308641975308641,278,-0.5906697202070467
140,0.02419753086419753086419753088,280,-0.1047587483395471
141,0.02454444444444444444444444445,282,0.15349479167789581
142,0.02489382716049382716049382717,284,0.3859528318320411
143,0.02524567901234567901234567902,286,0.6506363503241869
144,0.0256,288,0.7848645140984658
145,0.02595679012345679012345679012,290,0.10819787968607368
146,0.02631604938271604938271604938,292,-1.1157876412676662
147,0.02667777777777777777777777777,294,1.4855840522978556
148,0.02704197530864197530864197529,296,0.05693291814033864
149,0.02740864197530864197530864199,298,0.7026815525496384
150,0.02777777777777777777777777779,300,0.4063898143476851
151,0.02814938271604938271604938272,302,0.15588371260674752
152,0.02852345679012345679012345679,304,-1.2987883935953268
153,0.0289,306,-1.4146232680194024
154,0.02927901234567901234567901234,308,0.7910890690757482
155,0.02966049382716049382716049382,310,-2.086504364196038
156,0.03004444444444444444444444443,312,0.8527497705576367
157,0.03043086419753086419753086418,314,0.9035818217767911
158,0.03081975308641975308641975310,316,-1.499223167710082
159,0.03121111111111111111111111112,318,-2.9274017220594475
160,0.03160493827160493827160493828,320,3.462301833269848
161,0.03200123456790123456790123457,322,2.6833650756521497
162,0.0324,324,-2.115305890872118
163,0.03280123456790123456790123456,326,-0.4221657768998249
164,0.03320493827160493827160493826,328,0.7027309981093904
165,0.03361111111111111111111111110,330,-3.1255722889270916
166,0.03401975308641975308641975307,332,1.358757794627202
167,0.03443086419753086419753086421,334,3.0509549567461547
168,0.03484444444444444444444444446,336,-2.6286165876170897
169,0.03526049382716049382716049384,338,5.129734573788551
170,0.03567901234567901234567901235,340,0.6613999418979073
171,0.0361,342,2.3760771695052973
172,0.03652345679012345679012345679,344,1.0793927206896348
173,0.03694938271604938271604938271,346,-2.6533426932439728
174,0.03737777777777777777777777776,348,2.9615423140244346
175,0.03780864197530864197530864196,350,-0.27793649670672027
176,0.03824197530864197530864197533,352,2.2220415116766934
177,0.03867777777777777777777777779,354,-2.494166952906147
178,0.03911604938271604938271604939,356,2.1076219750461824
179,0.03955679012345679012345679013,358,-0.5345336658360317
180,0.04,360,2.1698444486816624
181,0.04044567901234567901234567901,362,0.12996599923947894
182,0.04089382716049382716049382715,364,2.1916648230509908
183,0.04134444444444444444444444443,366,-0.6795959977840665
184,0.04179753086419753086419753085,368,-0.1672752979007392
185,0.04225308641975308641975308644,370,2.30197022009686
186,0.04271111111111111111111111112,372,-0.402340569066058
187,0.04317160493827160493827160495,374,3.5266522440630403
188,0.04363456790123456790123456791,376,-0.05013551775273397
189,0.0441,378,1.50018482983066
190,0.04456790123456790123456790123,380,-1.0163897375921014
191,0.04503827160493827160493827160,382,-0.6247896261054837
192,0.04551111111111111111111111110,384,-0.2634548386870037
193,0.04598641975308641975308641973,386,0.3908478910537252
194,0.04646419753086419753086419755,388,-3.4094784502594266
195,0.04694444444444444444444444446,390,1.3260747736884102
196,0.04742716049382716049382716050,392,1.8321109405917193
197,0.04791234567901234567901234568,394,5.622481452906905
198,0.0484,396,0.9770917519422598
199,0.04889012345679012345679012345,398,3.4897793534069437
200,0.04938271604938271604938271604,400,-1.2372971011595346
201,0.04987777777777777777777777776,402,-0.8491704097528617
202,0.05037530864197530864197530862,404,4.316952005878992
203,0.05087530864197530864197530866,406,-1.4860543028932074
204,0.05137777777777777777777777779,408,1.7234506729098358
205,0.05188271604938271604938271606,410,-1.887707982155371
206,0.05239012345679012345679012346,412,3.6617846447101896
207,0.0529,414,-1.0976302363260688
208,0.05341234567901234567901234567,416,-0.9395299921386072
209,0.05392716049382716049382716048,418,-0.026244028524438207
210,0.05444444444444444444444444443,420,-0.20796662169964772
211,0.05496419753086419753086419751,422,4.131496834743924
212,0.05548641975308641975308641977,424,1.7229544818412563
213,0.05601111111111111111111111113,426,4.624661194370418
214,0.05653827160493827160493827162,428,0.17972944670658353
215,0.05706790123456790123456790124,430,0.4762971959825954
216,0.0576,432,-0.7862206231441079
217,0.05813456790123456790123456790,434,2.349192841891025
218,0.05867160493827160493827160493,436,1.544220741604115
219,0.05921111111111111111111111109,438,-2.5289461069733306
220,0.05975308641975308641975308640,440,-2.2039007983577905
221,0.06029753086419753086419753089,442,-4.082788503165368
222,0.06084444444444444444444444446,444,0.4071517609851029
223,0.06139382716049382716049382717,446,0.14929545246420384
224,0.06194567901234567901234567902,448,-4.457316284319083
225,0.0625,450,-0.1766925017959678
226,0.06305679012345679012345679012,452,0.29543031082567506
227,0.06361604938271604938271604937,454,2.204587420246814
228,0.06417777777777777777777777776,456,0.6603197796843627
229,0.06474197530864197530864197529,458,1.3047616040116614
230,0.06530864197530864197530864200,460,-2.310967903518869
231,0.06587777777777777777777777779,462,-1.4368248898763458
232,0.06644938271604938271604938273,464,-5.413202652111158
233,0.06702345679012345679012345680,466,4.406282474304321
234,0.0676,468,0.0070232477026665055
235,0.06817901234567901234567901234,470,-0.8914357695254388
236,0.06876049382716049382716049382,472,1.7240742752160974
237,0.06934444444444444444444444443,474,-0.37780797784523895
238,0.06993086419753086419753086417,476,-0.5554639968074928
239,0.07051975308641975308641975311,478,0.9791752005120412
240,0.07111111111111111111111111113,480,0.3238097481386728
241,0.07170493827160493827160493828,482,-0.2509925686390527
242,0.07230123456790123456790123457,484,-4.291177858470809
243,0.0729,486,-2.1847322835981418
244,0.07350123456790123456790123456,488,2.5705563900410264
245,0.07410493827160493827160493826,490,4.798580723597381
246,0.07471111111111111111111111109,492,1.6123941374269328
247,0.07531975308641975308641975306,494,0.4142832462163794
248,0.07593086419753086419753086422,496,0.7634760706601701
249,0.07654444444444444444444444446,498,0.1878169149886108
250,0.07716049382716049382716049384,500,-1.018046811753429
251,0.07777901234567901234567901235,502,1.0248351430385112
252,0.0784,504,0.7968951744580949
253,0.07902345679012345679012345678,506,-1.1316285003469242
254,0.07964938271604938271604938270,508,-0.08667419236798028
255,0.08027777777777777777777777776,510,-0.5661274630476991
256,0.08090864197530864197530864195,512,-1.3660256437484841
257,0.08154197530864197530864197533,514,1.0031676426641756
258,0.08217777777777777777777777780,516,-0.49710942249528356
259,0.08281604938271604938271604940,518,1.9504193641203476
260,0.08345679012345679012345679013,520,-0.6033701566159249
261,0.0841,522,-1.570296138097674
262,0.08474567901234567901234567901,524,0.7198104720691438
263,0.08539382716049382716049382715,526,-3.0575875925156772
264,0.08604444444444444444444444442,528,-1.4123477239636797
265,0.08669753086419753086419753084,530,0.35683806325240414
266,0.08735308641975308641975308645,532,0.23755211627996572
267,0.08801111111111111111111111113,534,1.0955922474817876
268,0.08867160493827160493827160495,536,2.989174176074347
269,0.08933456790123456790123456791,538,-1.5997078723851137
270,0.09,540,2.3998033064000097
271,0.09066790123456790123456790123,542,1.4073434863943437
272,0.09133827160493827160493827159,544,1.1876516063334135
273,0.09201111111111111111111111109,546,0.7121232357196581
274,0.09268641975308641975308641973,548,-2.027559149759093
275,0.09336419753086419753086419756,550,-3.2360134231517113
276,0.09404444444444444444444444446,552,0.29023498607315196
277,0.09472716049382716049382716051,554,1.2988187536260671
278,0.09541234567901234567901234569,556,-4.938527007476438
279,0.0961,558,0.1913451631054819
280,0.09679012345679012345679012345,560,0.0615652892267307
281,0.09748271604938271604938271604,562,0.9684080746783289
282,0.09817777777777777777777777776,564,-0.20516338460358177
283,0.09887530864197530864197530861,566,5.229612193031819
284,0.09957530864197530864197530867,568,0.4402394273388115
285,0.1002777777777777777777777778,570,0.9102012081062909
286,0.1009827160493827160493827161,572,3.4369596793761907
287,0.1016901234567901234567901235,574,3.583623510302319
288,0.1024,576,-2.3719146815428114
289,0.1031123456790123456790123457,578,-0.5287891623537273
290,0.1038271604938271604938271605,580,-2.2173029580806083
291,0.1045444444444444444444444444,582,2.7853445276828426
292,0.1052641975308641975308641975,584,-0.7529762267669154
293,0.1059864197530864197530864198,586,0.9637721917172368
294,0.1067111111111111111111111111,588,-1.5388662365493084
295,0.1074382716049382716049382716,590,-4.104506086368538
296,0.1081679012345679012345679012,592,-0.8813731463969656
297,0.1089,594,2.2914878586442713
298,0.1096345679012345679012345679,596,1.9710414081951224
299,0.1103716049382716049382716049,598,1.7747425485496682
300,0.1111111111111111111111111111,600,1.9810785032272742
301,0.1118530864197530864197530864,602,-1.8484451881835111
302,0.1125975308641975308641975309,604,-2.933028581947208
303,0.1133444444444444444444444445,606,0.7838989450784802
304,0.1140938271604938271604938272,608,-0.7910179424611757
305,0.1148456790123456790123456790,610,0.753266825790487
306,0.1156,612,5.645016823252526
307,0.1163567901234567901234567901,614,-1.2867931978571532
308,0.1171160493827160493827160494,616,1.349550487750682
309,0.1178777777777777777777777778,618,-0.3655309056597787
310,0.1186419753086419753086419753,620,-1.6926884831193667
311,0.1194086419753086419753086420,622,-2.924758317919097
312,0.1201777777777777777777777778,624,-0.9359849165856502
313,0.1209493827160493827160493827,626,1.1025448671926967
314,0.1217234567901234567901234568,628,-2.6361286691656844
315,0.1225,630,-2.1149216250530527
316,0.1232790123456790123456790123,632,2.175521793525886
317,0.1240604938271604938271604938,634,0.708369235367982
318,0.1248444444444444444444444444,636,-0.8271959125589542
319,0.1256308641975308641975308642,638,-1.7273338604517827
320,0.1264197530864197530864197531,640,0.8913682189210104
321,0.1272111111111111111111111111,642,1.8603362122801408
322,0.1280049382716049382716049383,644,-3.689320760734344
323,0.1288012345679012345679012346,646,-1.872390831319885
324,0.1296,648,2.3195345881949527
325,0.1304012345679012345679012346,650,-1.4413224688030124
326,0.1312049382716049382716049383,652,-0.3023992979560411
327,0.1320111111111111111111111111,654,0.3943870072457536
328,0.1328197530864197530864197531,656,0.8765615534023533
329,0.1336308641975308641975308642,658,-2.4633005135047528
330,0.1344444444444444444444444445,660,3.7710660003520733
331,0.1352604938271604938271604938,662,0.4208500532384263
332,0.1360790123456790123456790124,664,3.3462041178336155
333,0.1369,666,1.0687406992297115
334,0.1377234567901234567901234568,668,2.3725690686226937
335,0.1385493827160493827160493827,670,0.30033069687402225
336,0.1393777777777777777777777778,672,-1.681867861671805
337,0.1402086419753086419753086419,674,-2.2342559365053556
338,0.1410419753086419753086419753,676,1.0721122718368408
339,0.1418777777777777777777777778,678,-0.9308245929866348
340,0.1427160493827160493827160494,680,0.47470060425861066
341,0.1435567901234567901234567901,682,0.13775954348539113
342,0.1444,684,1.9694321243714032
343,0.1452456790123456790123456790,686,-0.8296345845920309
344,0.1460938271604938271604938271,688,-3.60699832132655
345,0.1469444444444444444444444444,690,3.337057064707575
346,0.1477975308641975308641975308,692,-0.7027839917594828
347,0.1486530864197530864197530865,694,0.034903068023177684
348,0.1495111111111111111111111111,696,-1.2173588131347843
349,0.1503716049382716049382716050,698,2.071825442579269
350,0.1512345679012345679012345679,700,2.252745884932554
351,0.1521,702,1.5714324189255522
352,0.1529679012345679012345679012,704,0.20524631156003742
353,0.1538382716049382716049382716,706,1.739117236895824
354,0.1547111111111111111111111111,708,-4.142912976417905
