,Mass (amu),Time (microseconds),Amplitude
0,0,0,0.3443696730922093
1,0.000001234567901234567901234567901,2,-1.8616695818177869
2,0.000004938271604938271604938271604,4,-2.3102848570443437
3,0.00001111111111111111111111111111,6,-0.0064521685220472825
4,0.00001975308641975308641975308642,8,-1.057777616065323
5,0.00003086419753086419753086419754,10,0.2780891415075634
6,0.00004444444444444444444444444445,12,-2.6438035861141262
7,0.00006049382716049382716049382716,14,2.6605578926568763
8,0.00007901234567901234567901234568,16,0.49415186012170653
9,0.0001,18,-0.8506409011353643
10,0.0001234567901234567901234567901,20,-1.9777993013659425
11,0.0001493827160493827160493827160,22,1.5361506362651098
12,0.0001777777777777777777777777777,24,2.5628497670296224
13,0.0002086419753086419753086419752,26,-2.9044187642484407
14,0.0002419753086419753086419753088,28,-0.3918463238082161
15,0.0002777777777777777777777777779,30,-1.8223938106935216
16,0.0003160493827160493827160493828,32,0.43912503436703126
17,0.0003567901234567901234567901235,34,0.47894017980529
18,0.0004,36,2.4693506314494096
19,0.0004456790123456790123456790123,38,3.3679533270904636
20,0.0004938271604938271604938271604,40,-1.3012807786720668
21,0.0005444444444444444444444444443,42,0.10444688820608723
22,0.0005975308641975308641975308640,44,1.518109556141294
23,0.0006530864197530864197530864200,46,-0.8914187670062871
24,0.0007111111111111111111111111113,48,5.141424931684183
25,0.0007716049382716049382716049384,50,3.183250257858896
26,0.0008345679012345679012345679013,52,0.6833672602256508
27,0.0009,54,-3.11746776609979
28,0.0009679012345679012345679012345,56,-0.18797156972836668
29,0.001038271604938271604938271605,58,0.20973010342090598
30,0.001111111111111111111111111111,60,1.1506212742092936
31,0.001186419753086419753086419753,62,-1.1352343043336584
32,0.001264197530864197530864197531,64,0.2867458147733911
33,0.001344444444444444444444444445,66,-1.5410061674229467
34,0.001427160493827160493827160494,68,-1.9810065857380235
35,0.001512345679012345679012345679,70,-3.2270906991190427
36,0.0016,72,-2.6546828266757236
37,0.001690123456790123456790123457,74,-5.41182133170772
38,0.001782716049382716049382716049,76,-4.547645958779459
39,0.001877777777777777777777777777,78,-2.1478394532181824
40,0.001975308641975308641975308642,80,-0.21691862523680075
41,0.002075308641975308641975308642,82,-1.6712486864323415
42,0.002177777777777777777777777778,84,-3.0374518066917715
43,0.002282716049382716049382716050,86,-2.6723702612608333
44,0.002390123456790123456790123457,88,3.5739837252604607
45,0.0025,90,0.9982980134064213
46,0.002612345679012345679012345679,92,-0.023235642591514238
47,0.002727160493827160493827160494,94,-4.5390997811351035
48,0.002844444444444444444444444444,96,-0.3978256803724904
49,0.002964197530864197530864197530,98,3.1894111233018734
50,0.003086419753086419753086419754,100,-1.0443988561755266
51,0.003211111111111111111111111111,102,-0.24710857947514964
52,0.003338271604938271604938271605,104,-3.0006695816590754
53,0.003467901234567901234567901235,106,-0.49928337444022897
54,0.0036,108,-3.630597192625842
55,0.003734567901234567901234567901,110,3.3225388153059225
56,0.003871604938271604938271604938,112,-2.507542924765024
57,0.004011111111111111111111111111,114,1.345122231921898
58,0.004153086419753086419753086419,116,-3.1843692236817738
59,0.004297530864197530864197530865,118,-1.0640197099609996
60,0.004444444444444444444444444445,120,2.2856005054925217
61,0.004593827160493827160493827161,122,-5.207937073468291
62,0.004745679012345679012345679012,124,-0.7882635198724054
63,0.0049,126,-0.8985904635354938
64,0.005056790123456790123456790123,128,2.8108164954171686
65,0.005216049382716049382716049382,130,-2.688830586205475
66,0.005377777777777777777777777777,132,2.7345000238194705
67,0.005541975308641975308641975308,134,2.010682946894742
68,0.005708641975308641975308641976,136,-2.5148308992975714
69,0.005877777777777777777777777778,138,-0.3751397422931754
70,0.006049382716049382716049382716,140,-0.8358243666635545
71,0.006223456790123456790123456790,142,-1.309875675320488
72,0.0064,144,-0.1043059753053936
73,0.006579012345679012345679012345,146,1.642603547453504
74,0.006760493827160493827160493827,148,-1.1677440425956696
75,0.006944444444444444444444444444,150,-3.2743335200641894
76,0.007130864197530864197530864197,152,2.3964091832925867
77,0.007319753086419753086419753087,154,1.3799696474862382
78,0.007511111111111111111111111112,156,1.4372689170501873
79,0.007704938271604938271604938272,158,-0.576841202966883
80,0.007901234567901234567901234568,160,2.34429156121153
81,0.0081,162,-1.4472675256652001
82,0.008301234567901234567901234568,164,-1.8643079350306548
83,0.008504938271604938271604938271,166,-3.4539270247329785
84,0.008711111111111111111111111110,168,0.41140763336037095
85,0.008919753086419753086419753086,170,-2.186160301861218
86,0.009130864197530864197530864198,172,-1.1467323180086333
87,0.009344444444444444444444444445,174,-0.8268735105645485
88,0.009560493827160493827160493828,176,-2.070722088251757
89,0.009779012345679012345679012346,178,-2.172216516158665
90,0.01,180,-0.8181162547604257
91,0.01022345679012345679012345679,182,-3.6998213505438695
92,0.01044938271604938271604938271,184,-0.8098908618777821
93,0.01067777777777777777777777777,186,1.180844663321261
94,0.01090864197530864197530864197,188,0.7661108255930973
95,0.01114197530864197530864197532,190,-1.243755267385109
96,0.01137777777777777777777777778,192,-3.26343360228554
97,0.01161604938271604938271604939,194,-2.667943993568734
98,0.01185679012345679012345679013,196,3.83101410762038
99,0.0121,198,-1.9950567437905733
100,0.01234567901234567901234567901,200,0.7910140201098982
101,0.01259382716049382716049382716,202,5.183418336662765
102,0.01284444444444444444444444444,204,4.386673841603736
103,0.01309753086419753086419753085,206,2.3105026595531495
104,0.01335308641975308641975308643,208,-0.888435073153701
105,0.01361111111111111111111111112,210,0.36929145630748245
106,0.01387160493827160493827160494,212,0.42958858638372077
107,0.01413456790123456790123456790,214,-3.5482280914317847
108,0.0144,216,1.8939243300789799
109,0.01466790123456790123456790123,218,1.1138721778407843
110,0.01493827160493827160493827160,220,-1.0564573375236148
111,0.01521111111111111111111111110,222,-1.6837892279532611
112,0.01548641975308641975308641974,224,-4.435800952195966
113,0.01576419753086419753086419754,226,-0.5208469378915429
114,0.01604444444444444444444444445,228,2.5815688039421016
115,0.01632716049382716049382716050,230,-2.511965855728932
116,0.01661234567901234567901234568,232,0.4786372663611444
117,0.0169,234,0.4034707032126569
118,0.01719012345679012345679012345,236,-0.16118315854382223
119,0.01748271604938271604938271604,238,2.42798296195546
120,0.01777777777777777777777777777,240,1.78814152710768
121,0.01807530864197530864197530863,242,4.344156519372501
122,0.01837530864197530864197530865,244,1.8840567692603134
123,0.01867777777777777777777777779,246,0.08313887272682216
124,0.01898271604938271604938271606,248,2.6641287585439293
125,0.01929012345679012345679012346,250,1.7321096372556437
126,0.0196,252,-6.3189205823145365
127,0.01991234567901234567901234568,254,-0.5708300885756951
128,0.02022716049382716049382716049,256,-0.3822772781788574
129,0.02054444444444444444444444443,258,4.158479169200141
130,0.02086419753086419753086419752,260,2.055686266940106
131,0.02118641975308641975308641977,262,1.4298480983614303
132,0.02151111111111111111111111112,264,-0.10031382904138436
133,0.02183827160493827160493827161,266,-2.17631857289366
134,0.02216790123456790123456790124,268,0.22577371895732498
135,0.0225,270,0.3682578487891999
136,0.02283456790123456790123456790,272,1.0148035499333228
137,0.02317160493827160493827160493,274,-2.0540167542738152
138,0.02351111111111111111111111110,276,-0.7124818392036096
139,0.02385308641975308641975308641,278,-2.11182208891754
140,0.02419753086419753086419753088,280,-5.6615011042787655
141,0.02454444444444444444444444445,282,-1.0290738484600457
142,0.02489382716049382716049382717,284,-2.713249546594235
143,0.02524567901234567901234567902,286,-0.99815406223538
144,0.0256,288,-1.2281264435753512
145,0.02595679012345679012345679012,290,-2.6782726900166542
146,0.02631604938271604938271604938,292,1.5243936572044485
147,0.02667777777777777777777777777,294,-3.710514618080143
148,0.02704197530864197530864197529,296,-0.9081718767649024
149,0.02740864197530864197530864199,298,-2.545089063252086
150,0.02777777777777777777777777779,300,0.48478874971738745
151,0.02814938271604938271604938272,302,-1.3341754376859527
152,0.02852345679012345679012345679,304,1.5338460777894518
153,0.0289,306,-2.6270369518328374
154,0.02927901234567901234567901234,308,-1.37007925698068
155,0.02966049382716049382716049382,310,-3.9516256641684504
156,0.03004444444444444444444444443,312,1.6827501962688949
157,0.03043086419753086419753086418,314,4.9369164650223825
158,0.03081975308641975308641975310,316,-0.7584171666257422
159,0.03121111111111111111111111112,318,-3.2521747648871973
160,0.03160493827160493827160493828,320,-1.3793438088378933
161,0.03200123456790123456790123457,322,-0.008963268948755336
162,0.0324,324,-0.666632063489201
163,0.03280123456790123456790123456,326,-0.2208296452784983
164,0.03320493827160493827160493826,328,-2.1488991681251925
165,0.03361111111111111111111111110,330,-1.1402198521363984
166,0.03401975308641975308641975307,332,-1.3120366597527267
167,0.03443086419753086419753086421,334,1.447001243001012
168,0.03484444444444444444444444446,336,1.0246735520052075
169,0.03526049382716049382716049384,338,-1.600597649064645
170,0.03567901234567901234567901235,340,2.8048664232905907
171,0.0361,342,-2.578765305967773
172,0.03652345679012345679012345679,344,4.332878734180552
173,0.03694938271604938271604938271,346,1.7887261259327452
174,0.03737777777777777777777777776,348,3.054684866548779
175,0.03780864197530864197530864196,350,2.626943039987614
176,0.03824197530864197530864197533,352,1.3611730687431776
177,0.03867777777777777777777777779,354,1.7741510148282853
178,0.03911604938271604938271604939,356,-2.376748246403268
179,0.03955679012345679012345679013,358,-1.4810358312296228
180,0.04,360,-3.256891576971209
181,0.04044567901234567901234567901,362,-1.8458809784356256
182,0.04089382716049382716049382715,364,2.975699881800588
183,0.04134444444444444444444444443,366,2.540468662336902
184,0.04179753086419753086419753085,368,-1.049873889058439
185,0.04225308641975308641975308644,370,-2.7946181093202576
186,0.04271111111111111111111111112,372,-4.136647588051846
187,0.04317160493827160493827160495,374,-2.900030664760997
188,0.04363456790123456790123456791,376,0.2170378515417127
189,0.0441,378,0.6327415870082425
190,0.04456790123456790123456790123,380,-1.7660088415539834
191,0.04503827160493827160493827160,382,2.1881281673408655
192,0.04551111111111111111111111110,384,-0.6289746355943915
193,0.04598641975308641975308641973,386,-4.037691015297477
194,0.04646419753086419753086419755,388,-0.8370406534943043
195,0.04694444444444444444444444446,390,1.0659008729573278
196,0.04742716049382716049382716050,392,-0.6503486016809635
197,0.04791234567901234567901234568,394,-3.795323348298077
198,0.0484,396,-2.663374620766116
199,0.04889012345679012345679012345,398,1.5331459973054247
200,0.04938271604938271604938271604,400,0.44572523081990034
201,0.04987777777777777777777777776,402,-0.7903068112155313
202,0.05037530864197530864197530862,404,-1.8775094098522653
203,0.05087530864197530864197530866,406,0.8424748375031292
204,0.05137777777777777777777777779,408,1.6803257896808328
205,0.05188271604938271604938271606,410,2.2048764665774883
206,0.05239012345679012345679012346,412,-3.3202988196429692
207,0.0529,414,-1.8806222714044207
208,0.05341234567901234567901234567,416,-1.5591608684630553
209,0.05392716049382716049382716048,418,2.3404491121560933
210,0.05444444444444444444444444443,420,1.6148475068195811
211,0.05496419753086419753086419751,422,4.9505246449772615
212,0.05548641975308641975308641977,424,-2.0208023210544526
213,0.05601111111111111111111111113,426,-4.780979712499529
214,0.05653827160493827160493827162,428,5.814539498641009
215,0.05706790123456790123456790124,430,-1.18894607937479
216,0.0576,432,-1.4768324483369986
217,0.05813456790123456790123456790,434,-1.537313000228942
218,0.05867160493827160493827160493,436,4.292075760263999
219,0.05921111111111111111111111109,438,0.7042312024110157
220,0.05975308641975308641975308640,440,-3.1694062426520393
221,0.06029753086419753086419753089,442,0.5829762344275463
222,0.06084444444444444444444444446,444,-1.5134736017728716
223,0.06139382716049382716049382717,446,-0.47985542087234445
224,0.06194567901234567901234567902,448,0.5152534220299809
225,0.0625,450,0.9381619432862465
226,0.06305679012345679012345679012,452,-2.449050276327489
227,0.06361604938271604938271604937,454,-2.910759727334724
228,0.06417777777777777777777777776,456,0.25973154774030455
229,0.06474197530864197530864197529,458,-0.47491715804191853
230,0.06530864197530864197530864200,460,1.16730471113028
231,0.06587777777777777777777777779,462,3.0743756701501046
232,0.06644938271604938271604938273,464,-1.8121406640937703
233,0.06702345679012345679012345680,466,-0.2838371361330196
234,0.0676,468,-1.2146644762593295
235,0.06817901234567901234567901234,470,1.002392945144514
236,0.06876049382716049382716049382,472,-1.6576318648991009
237,0.06934444444444444444444444443,474,0.9891843609848154
238,0.06993086419753086419753086417,476,1.7771946301327421
239,0.07051975308641975308641975311,478,-0.5593349193611543
240,0.07111111111111111111111111113,480,-1.0122009914374426
241,0.07170493827160493827160493828,482,-4.635538319479741
242,0.07230123456790123456790123457,484,-0.010993553256523405
243,0.0729,486,0.026557412139745662
244,0.07350123456790123456790123456,488,2.7232832431348415
245,0.07410493827160493827160493826,490,0.3941872164892351
246,0.07471111111111111111111111109,492,-0.28186340401313137
247,0.07531975308641975308641975306,494,1.2964422605399972
248,0.07593086419753086419753086422,496,1.3602059085596159
249,0.07654444444444444444444444446,498,-0.7462514692969618
250,0.07716049382716049382716049384,500,5.019655080076079
251,0.07777901234567901234567901235,502,2.6644296552776807
252,0.0784,504,-0.43578080654931856
253,0.07902345679012345679012345678,506,0.48652347509922644
254,0.07964938271604938271604938270,508,-0.3745983299866037
255,0.08027777777777777777777777776,510,-0.5685497476079604
256,0.08090864197530864197530864195,512,-0.9731581189764513
257,0.08154197530864197530864197533,514,0.34737750694031505
258,0.08217777777777777777777777780,516,1.8529136511679916
259,0.08281604938271604938271604940,518,-1.5521258492867895
260,0.08345679012345679012345679013,520,-1.767267313674862
261,0.0841,522,-0.08872535284032664
262,0.08474567901234567901234567901,524,-0.8950496910281419
263,0.08539382716049382716049382715,526,2.140942027857565
264,0.08604444444444444444444444442,528,-3.624773242811647
265,0.08669753086419753086419753084,530,-3.895993595584196
266,0.08735308641975308641975308645,532,-0.5235194620616123
267,0.08801111111111111111111111113,534,-1.4409201751658527
268,0.08867160493827160493827160495,536,-0.12449985162175883
269,0.08933456790123456790123456791,538,-0.7578810426291394
270,0.09,540,-2.039717522797906
271,0.09066790123456790123456790123,542,-3.1770776005226686
272,0.09133827160493827160493827159,544,2.249225773581851
273,0.09201111111111111111111111109,546,-0.7020832209459759
274,0.09268641975308641975308641973,548,-1.2629378366065225
275,0.09336419753086419753086419756,550,1.5882071899518488
276,0.09404444444444444444444444446,552,-2.724275998163192
277,0.09472716049382716049382716051,554,-1.658385136460589
278,0.09541234567901234567901234569,556,1.0895527538117566
279,0.0961,558,1.7245932414953151
280,0.09679012345679012345679012345,560,-0.01788862302665476
281,0.09748271604938271604938271604,562,0.2924143326534324
282,0.09817777777777777777777777776,564,-1.2671656744441666
283,0.09887530864197530864197530861,566,0.8402827034700814
284,0.09957530864197530864197530867,568,1.112590745544805
285,0.1002777777777777777777777778,570,-0.9043880576790118
286,0.1009827160493827160493827161,572,-1.2323422522293066
287,0.1016901234567901234567901235,574,0.37876707169141616
288,0.1024,576,3.690300297588405
289,0.1031123456790123456790123457,578,0.6695864854987741
290,0.1038271604938271604938271605,580,1.0809386130100564
291,0.1045444444444444444444444444,582,-1.700479529054633
292,0.1052641975308641975308641975,584,-1.3572289021167148
293,0.1059864197530864197530864198,586,4.985145056409896
294,0.1067111111111111111111111111,588,5.377637832411188
295,0.1074382716049382716049382716,590,0.7192296558236517
296,0.1081679012345679012345679012,592,0.18681644841133924
297,0.1089,594,2.057098078605872
298,0.1096345679012345679012345679,596,-2.318138708614217
299,0.1103716049382716049382716049,598,-1.4002464684956277
300,0.1111111111111111111111111111,600,-1.3413174081573407
301,0.1118530864197530864197530864,602,-0.2548262815265698
302,0.1125975308641975308641975309,604,1.5909346634804502
303,0.1133444444444444444444444445,606,0.13566177150147005
304,0.1140938271604938271604938272,608,1.2157403883698579
305,0.1148456790123456790123456790,610,3.6512372546656957
306,0.1156,612,-0.15173884966937615
307,0.1163567901234567901234567901,614,1.0785408841499082
308,0.1171160493827160493827160494,616,-0.8846322996428966
309,0.1178777777777777777777777778,618,-0.0020084912147351297
310,0.1186419753086419753086419753,620,4.199082323683359
311,0.1194086419753086419753086420,622,-3.462937402672191
312,0.1201777777777777777777777778,624,0.778780248838407
313,0.1209493827160493827160493827,626,-5.463054251577503
314,0.1217234567901234567901234568,628,0.7746750390951505
315,0.1225,630,-9.616846440000185
316,0.1232790123456790123456790123,632,-0.5452496726580539
317,0.1240604938271604938271604938,634,2.7486798744522236
318,0.1248444444444444444444444444,636,-3.3788829196415247
319,0.1256308641975308641975308642,638,-0.7708794068615422
320,0.1264197530864197530864197531,640,-3.3001943587327607
321,0.1272111111111111111111111111,642,-1.6396751316355354
322,0.1280049382716049382716049383,644,-1.6899645980796787
323,0.1288012345679012345679012346,646,-1.4623350569087727
324,0.1296,648,2.2365264741287127
325,0.1304012345679012345679012346,650,5.279048299315575
326,0.1312049382716049382716049383,652,-1.600751377945622
327,0.1320111111111111111111111111,654,-2.590116002915413
328,0.1328197530864197530864197531,656,2.3598302674843956
329,0.1336308641975308641975308642,658,-2.6914517483074882
330,0.1344444444444444444444444445,660,-1.8741434921565232
331,0.1352604938271604938271604938,662,-0.7376119820589444
332,0.1360790123456790123456790124,664,0.3519833654781538
333,0.1369,666,-3.428277688256956
334,0.1377234567901234567901234568,668,5.860486638401936
335,0.1385493827160493827160493827,670,2.192145755299764
336,0.1393777777777777777777777778,672,-1.1914773515688002
337,0.1402086419753086419753086419,674,6.1684353548927655
338,0.1410419753086419753086419753,676,0.5146460274907166
339,0.1418777777777777777777777778,678,-0.13597919277826928
340,0.1427160493827160493827160494,680,-0.44947987393021405
341,0.1435567901234567901234567901,682,-1.6827433702649988
342,0.1444,684,-7.335178550969643
343,0.1452456790123456790123456790,686,1.3983756216473144
344,0.1460938271604938271604938271,688,1.6520248098571069
345,0.1469444444444444444444444444,690,-2.1177170291148486
346,0.1477975308641975308641975308,692,-1.4840425102175134
347,0.1486530864197530864197530865,694,0.5113777335433564
348,0.1495111111111111111111111111,696,1.47915722570525
349,0.1503716049382716049382716050,698,-1.2356340316312517
350,0.1512345679012345679012345679,700,1.1710581811811818
351,0.1521,702,-0.3606468483878407
352,0.1529679012345679012345679012,704,-0.12794859621330626
353,0.1538382716049382716049382716,706,-1.468263715051551
