,Mass (amu),Time (microseconds),Amplitude
0,0,0,-1.9918944922680741
1,0.000001234567901234567901234567901,2,-6.8820820332024315
2,0.000004938271604938271604938271604,4,2.837134118595859
3,0.00001111111111111111111111111111,6,1.504850906252035
4,0.00001975308641975308641975308642,8,-1.5072817211786234
5,0.00003086419753086419753086419754,10,-0.5094194238887222
6,0.00004444444444444444444444444445,12,3.4381677396947956
7,0.00006049382716049382716049382716,14,2.1917738673635028
8,0.00007901234567901234567901234568,16,1.6926011596399728
9,0.0001,18,6.668819639054289
10,0.0001234567901234567901234567901,20,-0.010585501917737099
11,0.0001493827160493827160493827160,22,-3.8885324252085542
12,0.0001777777777777777777777777777,24,3.085861331730533
13,0.0002086419753086419753086419752,26,1.0939918017951225
14,0.0002419753086419753086419753088,28,-2.2418225837710977
15,0.0002777777777777777777777777779,30,2.935057562814143
16,0.0003160493827160493827160493828,32,1.5444910243498162
17,0.0003567901234567901234567901235,34,0.9134265134798097
18,0.0004,36,0.660440237996658
19,0.0004456790123456790123456790123,38,2.7298501364410033
20,0.0004938271604938271604938271604,40,-1.8101888874708647
21,0.0005444444444444444444444444443,42,5.0320150567467845
22,0.0005975308641975308641975308640,44,-0.14483936567607775
23,0.0006530864197530864197530864200,46,-1.5390123079723341
24,0.0007111111111111111111111111113,48,-4.624790261284371
25,0.0007716049382716049382716049384,50,-3.655600306408607
26,0.0008345679012345679012345679013,52,2.49517138328364
27,0.0009,54,0.21948907868221268
28,0.0009679012345679012345679012345,56,-1.207777359233404
29,0.001038271604938271604938271605,58,4.277827427474658
30,0.001111111111111111111111111111,60,5.945070525763123
31,0.001186419753086419753086419753,62,0.386423299296767
32,0.001264197530864197530864197531,64,0.7703253690895833
33,0.001344444444444444444444444445,66,0.4757775604847207
34,0.001427160493827160493827160494,68,2.440170474938104
35,0.001512345679012345679012345679,70,-1.0652453172054737
36,0.0016,72,-4.277791191491223
37,0.001690123456790123456790123457,74,2.226311715698848
38,0.001782716049382716049382716049,76,-0.6910096658742829
39,0.001877777777777777777777777777,78,-1.877880907535326
40,0.001975308641975308641975308642,80,2.0787891989898797
41,0.002075308641975308641975308642,82,2.757800241342685
42,0.002177777777777777777777777778,84,-2.817794849772507
43,0.002282716049382716049382716050,86,-1.8436553419702422
44,0.002390123456790123456790123457,88,-0.3758545045977544
45,0.0025,90,-0.40190033460581975
46,0.002612345679012345679012345679,92,-0.9118207485663812
47,0.002727160493827160493827160494,94,0.4962700905191686
48,0.002844444444444444444444444444,96,-1.8901532443798705
49,0.002964197530864197530864197530,98,3.6622919258871445
50,0.003086419753086419753086419754,100,3.3891415229195245
51,0.003211111111111111111111111111,102,-1.7596399300933054
52,0.003338271604938271604938271605,104,0.8520590664518795
53,0.003467901234567901234567901235,106,-4.512485274619979
54,0.0036,108,2.137555187749649
55,0.003734567901234567901234567901,110,1.052793176669896
56,0.003871604938271604938271604938,112,-0.18201136924058023
57,0.004011111111111111111111111111,114,2.7972547172065516
58,0.004153086419753086419753086419,116,-0.16711134830851143
59,0.004297530864197530864197530865,118,-0.3414280373692451
60,0.004444444444444444444444444445,120,1.463185258852771
61,0.004593827160493827160493827161,122,2.911151511310775
62,0.004745679012345679012345679012,124,2.153337958816987
63,0.0049,126,0.23206595311570666
64,0.005056790123456790123456790123,128,1.0287028897072017
65,0.005216049382716049382716049382,130,-1.8355927534271879
66,0.005377777777777777777777777777,132,-1.9610207800279909
67,0.005541975308641975308641975308,134,-2.3035527379384613
68,0.005708641975308641975308641976,136,-3.022445882099061
69,0.005877777777777777777777777778,138,-4.047778860166723
70,0.006049382716049382716049382716,140,-1.0664565579944503
71,0.006223456790123456790123456790,142,-1.3903442721450017
72,0.0064,144,6.767262754302402
73,0.006579012345679012345679012345,146,-0.5707126410362312
74,0.006760493827160493827160493827,148,2.933175985211556
75,0.006944444444444444444444444444,150,-0.6606890537229445
76,0.007130864197530864197530864197,152,0.13693553128896466
77,0.007319753086419753086419753087,154,2.9500321792061217
78,0.007511111111111111111111111112,156,-1.9223284808983898
79,0.007704938271604938271604938272,158,2.9072803542544094
80,0.007901234567901234567901234568,160,-2.8630113117808924
81,0.0081,162,3.2617260405920647
82,0.008301234567901234567901234568,164,3.9048970847857802
83,0.008504938271604938271604938271,166,1.038959816804487
84,0.008711111111111111111111111110,168,5.3786714427235784
85,0.008919753086419753086419753086,170,-0.14758963362622815
86,0.009130864197530864197530864198,172,1.8689508760908846
87,0.009344444444444444444444444445,174,-0.8537463530912814
88,0.009560493827160493827160493828,176,-1.7016060868157925
89,0.009779012345679012345679012346,178,0.0758643555887724
90,0.01,180,3.172456321038265
91,0.01022345679012345679012345679,182,-2.6590940180267415
92,0.01044938271604938271604938271,184,-0.9365313531547933
93,0.01067777777777777777777777777,186,-0.9601112358672969
94,0.01090864197530864197530864197,188,-4.029346789775811
95,0.01114197530864197530864197532,190,-1.391524203347746
96,0.01137777777777777777777777778,192,1.667501500310282
97,0.01161604938271604938271604939,194,0.6560691247514233
98,0.01185679012345679012345679013,196,-2.6157363744852313
99,0.0121,198,-0.9862968124654505
100,0.01234567901234567901234567901,200,0.2446403428039113
101,0.01259382716049382716049382716,202,-0.30142532243134873
102,0.01284444444444444444444444444,204,-1.58606147297273
103,0.01309753086419753086419753085,206,-1.3574636042474932
104,0.01335308641975308641975308643,208,0.6638092083440952
105,0.01361111111111111111111111112,210,-0.044758078386232455
106,0.01387160493827160493827160494,212,1.8034898320258315
107,0.01413456790123456790123456790,214,-0.5797430245648217
108,0.0144,216,-2.72596369264994
109,0.01466790123456790123456790123,218,3.7217668902468652
110,0.01493827160493827160493827160,220,-2.826970065590232
111,0.01521111111111111111111111110,222,0.17476472352197803
112,0.01548641975308641975308641974,224,1.5271050436997917
113,0.01576419753086419753086419754,226,2.27375245217304
114,0.01604444444444444444444444445,228,-0.05903468810705233
115,0.01632716049382716049382716050,230,0.9119933064458983
116,0.01661234567901234567901234568,232,0.16314542691123493
117,0.0169,234,1.9960882745578319
118,0.01719012345679012345679012345,236,4.268553018739675
119,0.01748271604938271604938271604,238,-0.24891494949339169
120,0.01777777777777777777777777777,240,-6.294186846738159
121,0.01807530864197530864197530863,242,0.5557322816915108
122,0.01837530864197530864197530865,244,-7.903376090676162
123,0.01867777777777777777777777779,246,0.24215969227771686
124,0.01898271604938271604938271606,248,-1.1134076685563952
125,0.01929012345679012345679012346,250,-4.307633390838106
126,0.0196,252,-0.5062490766971007
127,0.01991234567901234567901234568,254,-0.8377827127972362
128,0.02022716049382716049382716049,256,-1.2845237989820293
129,0.02054444444444444444444444443,258,2.5121838450520975
130,0.02086419753086419753086419752,260,-3.494743519613777
131,0.02118641975308641975308641977,262,-2.2450467167889525
132,0.02151111111111111111111111112,264,0.43811649697228505
133,0.02183827160493827160493827161,266,0.2620954426079284
134,0.02216790123456790123456790124,268,0.5305654895762657
135,0.0225,270,-2.1116369510753508
136,0.02283456790123456790123456790,272,4.316186870360779
137,0.02317160493827160493827160493,274,0.1158981046872802
138,0.02351111111111111111111111110,276,-0.9299639516111101
139,0.02385308641975308641975308641,278,-2.0774407365812575
140,0.02419753086419753086419753088,280,-0.6981559505067172
141,0.02454444444444444444444444445,282,3.7340278552259654
142,0.02489382716049382716049382717,284,-1.7408931002190622
143,0.02524567901234567901234567902,286,3.225570911405824
144,0.0256,288,-0.24595026063962425
145,0.02595679012345679012345679012,290,-1.8157744152258486
146,0.02631604938271604938271604938,292,-1.6762731039282899
147,0.02667777777777777777777777777,294,-2.361218139370236
148,0.02704197530864197530864197529,296,0.37279896031535165
149,0.02740864197530864197530864199,298,-1.657397503880939
150,0.02777777777777777777777777779,300,2.0750387165826343
151,0.02814938271604938271604938272,302,1.5817847857771603
152,0.02852345679012345679012345679,304,-1.7822509641006616
153,0.0289,306,-0.7328120426262148
154,0.02927901234567901234567901234,308,-0.107966349499641
155,0.02966049382716049382716049382,310,1.976952065336128
156,0.03004444444444444444444444443,312,-1.342589884786215
157,0.03043086419753086419753086418,314,-1.3072604292961436
158,0.03081975308641975308641975310,316,-2.7509083199824436
159,0.03121111111111111111111111112,318,-1.3347559880207536
160,0.03160493827160493827160493828,320,-2.9370011023010214
161,0.03200123456790123456790123457,322,-2.1501572423898363
162,0.0324,324,-0.6568076521743516
163,0.03280123456790123456790123456,326,2.515061226352442
164,0.03320493827160493827160493826,328,1.6171085947999078
165,0.03361111111111111111111111110,330,0.5774579001066685
166,0.03401975308641975308641975307,332,5.851378123320993
167,0.03443086419753086419753086421,334,-1.4394779207855
168,0.03484444444444444444444444446,336,2.552005552074584
169,0.03526049382716049382716049384,338,2.8232820658041295
170,0.03567901234567901234567901235,340,-3.0729330981854392
171,0.0361,342,0.23564570463547524
172,0.03652345679012345679012345679,344,-1.3672931888752335
173,0.03694938271604938271604938271,346,-0.058389752859830224
174,0.03737777777777777777777777776,348,1.7393323051926068
175,0.03780864197530864197530864196,350,-2.44316986794983
176,0.03824197530864197530864197533,352,-1.767710867264328
177,0.03867777777777777777777777779,354,0.9967252027749285
178,0.03911604938271604938271604939,356,-3.8019334950021966
179,0.03955679012345679012345679013,358,-3.6531030348581464
180,0.04,360,3.673022934008483
181,0.04044567901234567901234567901,362,3.1585189899401804
182,0.04089382716049382716049382715,364,1.74131857488351
183,0.04134444444444444444444444443,366,2.2893394694114706
184,0.04179753086419753086419753085,368,0.36829461992345447
185,0.04225308641975308641975308644,370,2.6139241871631453
186,0.04271111111111111111111111112,372,0.9874468104090789
187,0.04317160493827160493827160495,374,1.737807283341972
188,0.04363456790123456790123456791,376,3.862897347910922
189,0.0441,378,1.1003525734750113
190,0.04456790123456790123456790123,380,-0.7110809352773156
191,0.04503827160493827160493827160,382,2.9922114001553255
192,0.04551111111111111111111111110,384,2.9857187754982477
193,0.04598641975308641975308641973,386,-4.323124051042094
194,0.04646419753086419753086419755,388,1.508470887724146
195,0.04694444444444444444444444446,390,-2.3312047959908844
196,0.04742716049382716049382716050,392,-0.17832419626626617
197,0.04791234567901234567901234568,394,1.0745555475531632
198,0.0484,396,0.9951466577603906
199,0.04889012345679012345679012345,398,7.05719721757475
200,0.04938271604938271604938271604,400,-1.6453196659888838
201,0.04987777777777777777777777776,402,-3.7653558812959713
202,0.05037530864197530864197530862,404,-2.790324410118031
203,0.05087530864197530864197530866,406,-1.2626011853190515
204,0.05137777777777777777777777779,408,-3.7642781533933474
205,0.05188271604938271604938271606,410,-2.2092623119701065
206,0.05239012345679012345679012346,412,1.7655290824997707
207,0.0529,414,-0.5783802430012538
208,0.05341234567901234567901234567,416,0.44160751298767975
209,0.05392716049382716049382716048,418,4.209368874896325
210,0.05444444444444444444444444443,420,-0.414495151220807
211,0.05496419753086419753086419751,422,0.0070010811857967445
212,0.05548641975308641975308641977,424,-1.1603390092240753
213,0.05601111111111111111111111113,426,4.144530753483865
214,0.05653827160493827160493827162,428,-1.4796398454792792
215,0.05706790123456790123456790124,430,-2.0831381102052
216,0.0576,432,0.4538875830549976
217,0.05813456790123456790123456790,434,-0.6881204401144803
218,0.05867160493827160493827160493,436,-4.982132713570362
219,0.05921111111111111111111111109,438,4.375249248469295
220,0.05975308641975308641975308640,440,0.7750603447319647
221,0.06029753086419753086419753089,442,-1.935799336388106
222,0.06084444444444444444444444446,444,1.2314006754330111
223,0.06139382716049382716049382717,446,2.5596695187217966
224,0.06194567901234567901234567902,448,2.1210386935976357
225,0.0625,450,3.8944731763977414
226,0.06305679012345679012345679012,452,-2.8582823153282892
227,0.06361604938271604938271604937,454,5.0538405375931905
228,0.06417777777777777777777777776,456,0.7838273182767609
229,0.06474197530864197530864197529,458,-0.37369608312214814
230,0.06530864197530864197530864200,460,-0.31344975989974827
231,0.06587777777777777777777777779,462,-4.3426210260323534
232,0.06644938271604938271604938273,464,-3.298905617126173
233,0.06702345679012345679012345680,466,2.2852861928772574
234,0.0676,468,-0.7060274494233028
235,0.06817901234567901234567901234,470,-0.07077455790385162
236,0.06876049382716049382716049382,472,-0.8306104453762665
237,0.06934444444444444444444444443,474,-0.690063969548674
238,0.06993086419753086419753086417,476,-3.16890790096799
239,0.07051975308641975308641975311,478,-1.4696914581836182
240,0.07111111111111111111111111113,480,-0.4318600594659889
241,0.07170493827160493827160493828,482,2.3757967983891364
242,0.07230123456790123456790123457,484,-2.359130257824331
243,0.0729,486,-2.4503778382435653
244,0.07350123456790123456790123456,488,4.078963604711268
245,0.07410493827160493827160493826,490,-2.432298433417396
246,0.07471111111111111111111111109,492,-1.600276315868141
247,0.07531975308641975308641975306,494,3.436390713584844
248,0.07593086419753086419753086422,496,5.617782279771284
249,0.07654444444444444444444444446,498,-2.7385375713475013
250,0.07716049382716049382716049384,500,0.12405785538495046
251,0.07777901234567901234567901235,502,-1.2501824792245908
252,0.0784,504,2.998983163837961
253,0.07902345679012345679012345678,506,-1.7079571790820656
254,0.07964938271604938271604938270,508,0.24673641867545412
255,0.08027777777777777777777777776,510,-0.14167596703930585
256,0.08090864197530864197530864195,512,-5.0553502616515
257,0.08154197530864197530864197533,514,1.2446500209128277
258,0.08217777777777777777777777780,516,0.14408353530540643
259,0.08281604938271604938271604940,518,0.10088942610565081
260,0.08345679012345679012345679013,520,1.0752189259114724
261,0.0841,522,1.6609733314845254
262,0.08474567901234567901234567901,524,-0.8613086360899259
263,0.08539382716049382716049382715,526,-1.786094589515378
264,0.08604444444444444444444444442,528,4.047068053780067
265,0.08669753086419753086419753084,530,0.6537210974911065
266,0.08735308641975308641975308645,532,0.7092679051074278
267,0.08801111111111111111111111113,534,-2.85742301714
268,0.08867160493827160493827160495,536,1.4867833556056604
269,0.08933456790123456790123456791,538,-3.535529688054872
270,0.09,540,-0.24513392348106527
271,0.09066790123456790123456790123,542,2.095765901868596
272,0.09133827160493827160493827159,544,-0.06489823130813777
273,0.09201111111111111111111111109,546,-0.19842412348249588
274,0.09268641975308641975308641973,548,-0.9806055205712473
275,0.09336419753086419753086419756,550,-3.4782018866452624
276,0.09404444444444444444444444446,552,-0.1628497721837736
277,0.09472716049382716049382716051,554,0.5214036802185328
278,0.09541234567901234567901234569,556,-0.25144196823439846
279,0.0961,558,-1.8931541228652167
280,0.09679012345679012345679012345,560,0.24442618509360411
281,0.09748271604938271604938271604,562,1.80174344821183
282,0.09817777777777777777777777776,564,-0.9088324256303425
283,0.09887530864197530864197530861,566,-3.664358149356705
284,0.09957530864197530864197530867,568,-3.734378388787573
285,0.1002777777777777777777777778,570,-2.820569019805667
286,0.1009827160493827160493827161,572,-2.90825778729727
287,0.1016901234567901234567901235,574,-2.14636076563463
288,0.1024,576,1.835640849586828
289,0.1031123456790123456790123457,578,-1.1475168835504932
290,0.1038271604938271604938271605,580,-0.5403352239432715
291,0.1045444444444444444444444444,582,-4.196351304648
292,0.1052641975308641975308641975,584,0.7694895518203121
293,0.1059864197530864197530864198,586,1.5345392752903275
294,0.1067111111111111111111111111,588,0.41457013801698944
295,0.1074382716049382716049382716,590,-0.5619335328527284
296,0.1081679012345679012345679012,592,-3.253889556259818
297,0.1089,594,0.371014623927344
298,0.1096345679012345679012345679,596,-0.5443278429322912
299,0.1103716049382716049382716049,598,3.2399438954210145
300,0.1111111111111111111111111111,600,0.11540351054569743
301,0.1118530864197530864197530864,602,-2.066495016853919
302,0.1125975308641975308641975309,604,2.353942286472063
303,0.1133444444444444444444444445,606,2.5509491781620426
304,0.1140938271604938271604938272,608,1.4907569088117891
305,0.1148456790123456790123456790,610,-0.8209189855820309
306,0.1156,612,-3.215650641811795
307,0.1163567901234567901234567901,614,-2.571737185321887
308,0.1171160493827160493827160494,616,2.9190378846653435
309,0.1178777777777777777777777778,618,-0.23612275192850374
310,0.1186419753086419753086419753,620,-3.2103352492443267
311,0.1194086419753086419753086420,622,3.712000265099813
312,0.1201777777777777777777777778,624,1.0036420776686796
313,0.1209493827160493827160493827,626,2.7603871268416227
314,0.1217234567901234567901234568,628,-3.474344696073492
315,0.1225,630,-5.148207383313739
316,0.1232790123456790123456790123,632,-0.3537079676126451
317,0.1240604938271604938271604938,634,2.0285791103721786
318,0.1248444444444444444444444444,636,-0.537048133474326
319,0.1256308641975308641975308642,638,-0.7124292347857164
320,0.1264197530864197530864197531,640,-0.47531832512094024
321,0.1272111111111111111111111111,642,3.348525887411969
322,0.1280049382716049382716049383,644,2.5227776082821536
323,0.1288012345679012345679012346,646,5.57194534198044
324,0.1296,648,-2.9740603118510216
325,0.1304012345679012345679012346,650,2.4648080249323145
326,0.1312049382716049382716049383,652,0.4738029369787046
327,0.1320111111111111111111111111,654,-0.8208693322812051
328,0.1328197530864197530864197531,656,2.269339511058118
329,0.1336308641975308641975308642,658,0.03324613463056647
330,0.1344444444444444444444444445,660,2.2440896481431265
331,0.1352604938271604938271604938,662,-2.469649942279463
332,0.1360790123456790123456790124,664,0.10402680208400518
333,0.1369,666,0.1794923893134509
334,0.1377234567901234567901234568,668,-2.6750333622664573
335,0.1385493827160493827160493827,670,4.01934472477933
336,0.1393777777777777777777777778,672,-1.2941522106566046
337,0.1402086419753086419753086419,674,0.8441475964402455
338,0.1410419753086419753086419753,676,-0.15057814302293607
339,0.1418777777777777777777777778,678,4.360235110071362
340,0.1427160493827160493827160494,680,-0.4668637002425747
341,0.1435567901234567901234567901,682,-0.9295916038186832
342,0.1444,684,-6.897766255715251
343,0.1452456790123456790123456790,686,2.789786981312914
344,0.1460938271604938271604938271,688,-2.721985975484172
345,0.1469444444444444444444444444,690,3.0114151824736104
346,0.1477975308641975308641975308,692,-6.163657656324702
347,0.1486530864197530864197530865,694,0.5846908404453833
348,0.1495111111111111111111111111,696,0.29092155263590697
349,0.1503716049382716049382716050,698,-3.021309813269319
350,0.1512345679012345679012345679,700,4.399473926223839
351,0.1521,702,-0.9915567374857166
352,0.1529679012345679012345679012,704,-3.410353550534608
353,0.1538382716049382716049382716,706,-1.2554980060018581
354,0.1547111111111111111111111111,708,1.9697716721551155
