,Mass (amu),Time (microseconds),Amplitude
0,0,0,0.08656117611382466
1,0.000001234567901234567901234567901,2,0.4788970558632861
2,0.000004938271604938271604938271604,4,-1.3138181454372226
3,0.00001111111111111111111111111111,6,-0.7156064982068631
4,0.00001975308641975308641975308642,8,1.1185268707548
5,0.00003086419753086419753086419754,10,-1.5477773778498105
6,0.00004444444444444444444444444445,12,0.5899720373049716
7,0.00006049382716049382716049382716,14,-4.254781628708321
8,0.00007901234567901234567901234568,16,0.39659787805909213
9,0.0001,18,2.096975635420752
10,0.0001234567901234567901234567901,20,-1.0876692358416191
11,0.0001493827160493827160493827160,22,-0.11705107105284009
12,0.0001777777777777777777777777777,24,3.058979810753489
13,0.0002086419753086419753086419752,26,3.373648783953098
14,0.0002419753086419753086419753088,28,1.4193277848181713
15,0.0002777777777777777777777777779,30,2.883339163315405
16,0.0003160493827160493827160493828,32,-2.7607363602559385
17,0.0003567901234567901234567901235,34,-1.2823008240320743
18,0.0004,36,-3.5481013705943267
19,0.0004456790123456790123456790123,38,1.1253585279965075
20,0.0004938271604938271604938271604,40,6.023417188141799
21,0.0005444444444444444444444444443,42,-0.4842099959953104
22,0.0005975308641975308641975308640,44,-0.5621134181312532
23,0.0006530864197530864197530864200,46,-2.1871037425382114
24,0.0007111111111111111111111111113,48,-0.7026276116195149
25,0.0007716049382716049382716049384,50,2.259368014652671
26,0.0008345679012345679012345679013,52,1.421295958354296
27,0.0009,54,-0.8776261778192829
28,0.0009679012345679012345679012345,56,0.9963279603000876
29,0.001038271604938271604938271605,58,-1.9931791126097762
30,0.001111111111111111111111111111,60,1.3102430109581693
31,0.001186419753086419753086419753,62,-1.3218945251670422
32,0.001264197530864197530864197531,64,0.4925025283702132
33,0.001344444444444444444444444445,66,1.1825725023541789
34,0.001427160493827160493827160494,68,0.8003293012921181
35,0.001512345679012345679012345679,70,-0.874461098915272
36,0.0016,72,4.617569462368508
37,0.001690123456790123456790123457,74,-1.718623727608482
38,0.001782716049382716049382716049,76,-1.8266688185060442
39,0.001877777777777777777777777777,78,1.39876074184752
40,0.001975308641975308641975308642,80,-1.9159799815311174
41,0.002075308641975308641975308642,82,-1.6890237167647613
42,0.002177777777777777777777777778,84,2.953357763009312
43,0.002282716049382716049382716050,86,2.1315810447037427
44,0.002390123456790123456790123457,88,2.8669422738339505
45,0.0025,90,0.34773873347158396
46,0.002612345679012345679012345679,92,-3.5890212334069016
47,0.002727160493827160493827160494,94,0.8445610642912156
48,0.002844444444444444444444444444,96,-1.5890420949493202
49,0.002964197530864197530864197530,98,-3.013905723310533
50,0.003086419753086419753086419754,100,1.2663330834746211
51,0.003211111111111111111111111111,102,0.6674851676543277
52,0.003338271604938271604938271605,104,-2.9573857706609386
53,0.003467901234567901234567901235,106,4.816639819918734
54,0.0036,108,0.444791543198968
55,0.003734567901234567901234567901,110,0.9303077760785669
56,0.003871604938271604938271604938,112,-1.945095837839041
57,0.004011111111111111111111111111,114,-0.23004322084576007
58,0.004153086419753086419753086419,116,-0.03667147589425548
59,0.004297530864197530864197530865,118,1.3597811668782807
60,0.004444444444444444444444444445,120,0.3052017171960045
61,0.004593827160493827160493827161,122,-2.5581171965238805
62,0.004745679012345679012345679012,124,-4.607489589541748
63,0.0049,126,-0.5328357502190791
64,0.005056790123456790123456790123,128,1.9771198134643677
65,0.005216049382716049382716049382,130,3.1751155738497037
66,0.005377777777777777777777777777,132,-5.971288717287078
67,0.005541975308641975308641975308,134,-1.311093810133981
68,0.005708641975308641975308641976,136,-0.6077782350870614
69,0.005877777777777777777777777778,138,-0.17560203145473893
70,0.006049382716049382716049382716,140,0.34599861973625873
71,0.006223456790123456790123456790,142,-1.5973892469899293
72,0.0064,144,-1.1342830551546161
73,0.006579012345679012345679012345,146,3.228749983585049
74,0.006760493827160493827160493827,148,0.7633631997815575
75,0.006944444444444444444444444444,150,-1.8537867457895465
76,0.007130864197530864197530864197,152,-2.4138747786319374
77,0.007319753086419753086419753087,154,-0.42447268107135067
78,0.007511111111111111111111111112,156,-2.1007396236625238
79,0.007704938271604938271604938272,158,-1.7076336862649752
80,0.007901234567901234567901234568,160,-1.5639754694656167
81,0.0081,162,3.6687360392927
82,0.008301234567901234567901234568,164,2.334180737388375
83,0.008504938271604938271604938271,166,-3.9847729346237717
84,0.008711111111111111111111111110,168,1.817928587245179
85,0.008919753086419753086419753086,170,2.514230180997529
86,0.009130864197530864197530864198,172,-1.9842700434760654
87,0.009344444444444444444444444445,174,-2.16355691332187
88,0.009560493827160493827160493828,176,-0.7177902106869419
89,0.009779012345679012345679012346,178,3.4765544885398474
90,0.01,180,-1.3389656981710016
91,0.01022345679012345679012345679,182,3.801681360342671
92,0.01044938271604938271604938271,184,-4.173672607735845
93,0.01067777777777777777777777777,186,-0.4706814937363997
94,0.01090864197530864197530864197,188,0.9919329526618859
95,0.01114197530864197530864197532,190,2.3204711539926337
96,0.01137777777777777777777777778,192,0.32478081613047816
97,0.01161604938271604938271604939,194,2.954423625686935
98,0.01185679012345679012345679013,196,-0.4938400189657637
99,0.0121,198,0.7928861862731248
100,0.01234567901234567901234567901,200,1.511764248376854
101,0.01259382716049382716049382716,202,5.15516199896594
102,0.01284444444444444444444444444,204,4.432244951454038
103,0.01309753086419753086419753085,206,-1.556353646700492
104,0.01335308641975308641975308643,208,3.0454712545685148
105,0.01361111111111111111111111112,210,-1.2434345709219081
106,0.01387160493827160493827160494,212,3.066197631352109
107,0.01413456790123456790123456790,214,0.9695995371549508
108,0.0144,216,0.06284876008182488
109,0.01466790123456790123456790123,218,1.8689647165220526
110,0.01493827160493827160493827160,220,2.299471185366191
111,0.01521111111111111111111111110,222,0.1876897683845248
112,0.01548641975308641975308641974,224,0.4476732590003335
113,0.01576419753086419753086419754,226,2.2836071402787725
114,0.01604444444444444444444444445,228,2.6246721305119642
115,0.01632716049382716049382716050,230,-0.02887979234307385
116,0.01661234567901234567901234568,232,0.4484254896438127
117,0.0169,234,-1.278036585588473
118,0.01719012345679012345679012345,236,4.319383341785189
119,0.01748271604938271604938271604,238,0.1257403418323662
120,0.01777777777777777777777777777,240,0.6694293291869948
121,0.01807530864197530864197530863,242,-1.7288488902468209
122,0.01837530864197530864197530865,244,5.18258709743982
123,0.01867777777777777777777777779,246,-0.7593351577798942
124,0.01898271604938271604938271606,248,-0.8055466260455596
125,0.01929012345679012345679012346,250,-1.1945497360970496
126,0.0196,252,1.9574674909807477
127,0.01991234567901234567901234568,254,1.3116712223358011
128,0.02022716049382716049382716049,256,0.20403131084649304
129,0.02054444444444444444444444443,258,-1.0164473699655052
130,0.02086419753086419753086419752,260,0.43063062130113566
131,0.02118641975308641975308641977,262,0.8750647226599524
132,0.02151111111111111111111111112,264,-0.036657733627411045
133,0.02183827160493827160493827161,266,3.509229843782183
134,0.02216790123456790123456790124,268,4.8276780351593755
135,0.0225,270,0.23587912667987326
136,0.02283456790123456790123456790,272,2.473237186088065
137,0.02317160493827160493827160493,274,-3.097868172748933
138,0.02351111111111111111111111110,276,-2.9402063013487143
139,0.02385308641975308641975308641,278,-1.4634356139178444
140,0.02419753086419753086419753088,280,-0.13713242475401743
141,0.02454444444444444444444444445,282,-1.885318868290694
142,0.02489382716049382716049382717,284,-1.914108538906882
143,0.02524567901234567901234567902,286,-1.9974292085795358
144,0.0256,288,2.5973694482252214
145,0.02595679012345679012345679012,290,2.43064909565222
146,0.02631604938271604938271604938,292,-1.3869961185208586
147,0.02667777777777777777777777777,294,-1.606727150235619
148,0.02704197530864197530864197529,296,-4.887095693374004
149,0.02740864197530864197530864199,298,0.13933936426145307
150,0.02777777777777777777777777779,300,-1.2916856658866382
151,0.02814938271604938271604938272,302,1.6769295254624883
152,0.02852345679012345679012345679,304,-1.4653863706937247
153,0.0289,306,1.1103241301645614
154,0.02927901234567901234567901234,308,-2.7436400216687242
155,0.02966049382716049382716049382,310,3.3739926532788407
156,0.03004444444444444444444444443,312,-0.7077949691353308
157,0.03043086419753086419753086418,314,0.6204414717523751
158,0.03081975308641975308641975310,316,2.210429330895757
159,0.03121111111111111111111111112,318,-0.981958509870885
160,0.03160493827160493827160493828,320,3.4012466277121844
161,0.03200123456790123456790123457,322,-3.044610789052121
162,0.0324,324,-0.1934241708774245
163,0.03280123456790123456790123456,326,0.12488498228109943
164,0.03320493827160493827160493826,328,0.3414836181184768
165,0.03361111111111111111111111110,330,-2.1958442462719883
166,0.03401975308641975308641975307,332,3.6414873202257048
167,0.03443086419753086419753086421,334,0.2493494037777508
168,0.03484444444444444444444444446,336,2.7997342948557953
169,0.03526049382716049382716049384,338,1.5029104216807196
170,0.03567901234567901234567901235,340,2.5729165923807793
171,0.0361,342,-1.1364045256517243
172,0.03652345679012345679012345679,344,-1.4474846072670104
173,0.03694938271604938271604938271,346,2.0238330416259416
174,0.03737777777777777777777777776,348,2.3045683055042963
175,0.03780864197530864197530864196,350,1.8223002533481674
176,0.03824197530864197530864197533,352,0.8543301768138055
177,0.03867777777777777777777777779,354,-0.6226800370257434
178,0.03911604938271604938271604939,356,0.22723019962700186
179,0.03955679012345679012345679013,358,-0.2542315873490368
180,0.04,360,-2.2868607789387863
181,0.04044567901234567901234567901,362,-1.0272132231509863
182,0.04089382716049382716049382715,364,4.87697225372283
183,0.04134444444444444444444444443,366,1.04131618310813
184,0.04179753086419753086419753085,368,-2.014092426190188
185,0.04225308641975308641975308644,370,1.4253640312063152
186,0.04271111111111111111111111112,372,-0.8607745838860416
187,0.04317160493827160493827160495,374,0.7964720555874069
188,0.04363456790123456790123456791,376,-1.1438608732606457
189,0.0441,378,-3.9166822017715
190,0.04456790123456790123456790123,380,-3.0347143986167717
191,0.04503827160493827160493827160,382,5.972201145961817
192,0.04551111111111111111111111110,384,1.5728715521882553
193,0.04598641975308641975308641973,386,-0.8005020148541586
194,0.04646419753086419753086419755,388,-4.810500583575167
195,0.04694444444444444444444444446,390,5.544266716915681
196,0.04742716049382716049382716050,392,0.129337738988271
197,0.04791234567901234567901234568,394,0.3162937469534326
198,0.0484,396,1.8210498389839556
199,0.04889012345679012345679012345,398,5.659291355648249
200,0.04938271604938271604938271604,400,-2.776693289064472
201,0.04987777777777777777777777776,402,-0.7489015500053253
202,0.05037530864197530864197530862,404,-0.966975964950629
203,0.05087530864197530864197530866,406,-2.5786033356246003
204,0.05137777777777777777777777779,408,-2.1728748826242197
205,0.05188271604938271604938271606,410,-2.2501416065608764
206,0.05239012345679012345679012346,412,2.1150571554220314
207,0.0529,414,-2.2348724572966727
208,0.05341234567901234567901234567,416,1.0900055175333623
209,0.05392716049382716049382716048,418,3.4217184978967023
210,0.05444444444444444444444444443,420,-3.378956470778147
211,0.05496419753086419753086419751,422,-2.632029987427216
212,0.05548641975308641975308641977,424,2.2406080343590995
213,0.05601111111111111111111111113,426,-0.4387669777129277
214,0.05653827160493827160493827162,428,2.141879534765068
215,0.05706790123456790123456790124,430,1.1929270751318684
216,0.0576,432,0.4881496977486287
217,0.05813456790123456790123456790,434,-2.129234545942651
218,0.05867160493827160493827160493,436,0.8030816021911498
219,0.05921111111111111111111111109,438,2.763023578185933
220,0.05975308641975308641975308640,440,0.1573365296582735
221,0.06029753086419753086419753089,442,-1.7021988709137965
222,0.06084444444444444444444444446,444,0.741569585408476
223,0.06139382716049382716049382717,446,0.09784894225261027
224,0.06194567901234567901234567902,448,0.7732950678040169
225,0.0625,450,0.992799935721865
226,0.06305679012345679012345679012,452,1.4536852731920646
227,0.06361604938271604938271604937,454,1.5907935230322268
228,0.06417777777777777777777777776,456,-0.1610935812209719
229,0.06474197530864197530864197529,458,3.328555209280899
230,0.06530864197530864197530864200,460,3.0554566274486348
231,0.06587777777777777777777777779,462,-2.6570392216138212
232,0.06644938271604938271604938273,464,3.5645045061612257
233,0.06702345679012345679012345680,466,-2.1381266394168454
234,0.0676,468,-3.7254844008401586
235,0.06817901234567901234567901234,470,0.8437394187184185
236,0.06876049382716049382716049382,472,-2.259159082110162
237,0.06934444444444444444444444443,474,-0.11077890441378486
238,0.06993086419753086419753086417,476,-4.725835381002736
239,0.07051975308641975308641975311,478,-1.4761549422792348
240,0.07111111111111111111111111113,480,-0.5343185369749522
241,0.07170493827160493827160493828,482,1.010704757316465
242,0.07230123456790123456790123457,484,4.570346232240151
243,0.0729,486,1.0360438217191321
244,0.07350123456790123456790123456,488,-0.2848151221925218
245,0.07410493827160493827160493826,490,0.6418486245723947
246,0.07471111111111111111111111109,492,5.477902315390966
247,0.07531975308641975308641975306,494,-0.06679516630134598
248,0.07593086419753086419753086422,496,1.9575826035959105
249,0.07654444444444444444444444446,498,-3.0122331395161326
250,0.07716049382716049382716049384,500,-1.6187750101907312
251,0.07777901234567901234567901235,502,-1.2708925437894014
252,0.0784,504,2.1452954805064093
253,0.07902345679012345679012345678,506,-0.8024946306379674
254,0.07964938271604938271604938270,508,-2.484576337216329
255,0.08027777777777777777777777776,510,-1.7928071728906902
256,0.08090864197530864197530864195,512,7.59826959944791
257,0.08154197530864197530864197533,514,0.21202906080592324
258,0.08217777777777777777777777780,516,-1.8696553794890436
259,0.08281604938271604938271604940,518,-0.5548496884527776
260,0.08345679012345679012345679013,520,-0.8644088181907894
261,0.0841,522,-3.132198354509379
262,0.08474567901234567901234567901,524,1.696129407469222
263,0.08539382716049382716049382715,526,-2.936339317866752
264,0.08604444444444444444444444442,528,-2.5445575299863488
265,0.08669753086419753086419753084,530,-2.342266131297525
266,0.08735308641975308641975308645,532,1.8671282492657884
267,0.08801111111111111111111111113,534,-1.861435066507965
268,0.08867160493827160493827160495,536,1.4263865102376452
269,0.08933456790123456790123456791,538,-4.67348814114558
270,0.09,540,0.8917272371963
271,0.09066790123456790123456790123,542,-2.7385131229609456
272,0.09133827160493827160493827159,544,-0.35059926987790635
273,0.09201111111111111111111111109,546,-2.57015112376697
274,0.09268641975308641975308641973,548,2.162447127842334
275,0.09336419753086419753086419756,550,-1.767988011871301
276,0.09404444444444444444444444446,552,1.2184060731893571
277,0.09472716049382716049382716051,554,-4.374816890587966
278,0.09541234567901234567901234569,556,-1.9125587873527155
279,0.0961,558,-1.0800088033867807
280,0.09679012345679012345679012345,560,-0.37641647815517326
281,0.09748271604938271604938271604,562,0.4381830197325624
282,0.09817777777777777777777777776,564,-0.6233584970803412
283,0.09887530864197530864197530861,566,-2.342480837067626
284,0.09957530864197530864197530867,568,0.08544023142023537
285,0.1002777777777777777777777778,570,-2.903898360692036
286,0.1009827160493827160493827161,572,0.8300831083337536
287,0.1016901234567901234567901235,574,0.4503571244550705
288,0.1024,576,-0.004834824509599279
289,0.1031123456790123456790123457,578,0.8367866816636094
290,0.1038271604938271604938271605,580,-0.44583548107176807
291,0.1045444444444444444444444444,582,2.458868070176595
292,0.1052641975308641975308641975,584,1.7978897628511028
293,0.1059864197530864197530864198,586,-1.799188780312246
294,0.1067111111111111111111111111,588,4.128115672320635
295,0.1074382716049382716049382716,590,-1.6076425132269339
296,0.1081679012345679012345679012,592,1.206183838027603
297,0.1089,594,-2.2892880949324192
298,0.1096345679012345679012345679,596,-0.09860686031440931
299,0.1103716049382716049382716049,598,-1.5265893343214978
300,0.1111111111111111111111111111,600,0.1289755106821457
301,0.1118530864197530864197530864,602,-2.448409379201939
302,0.1125975308641975308641975309,604,-1.1720798187362083
303,0.1133444444444444444444444445,606,0.06252239194980859
304,0.1140938271604938271604938272,608,4.885366739043224
305,0.1148456790123456790123456790,610,-2.342354499285952
306,0.1156,612,0.9624821556750579
307,0.1163567901234567901234567901,614,2.5690869145342448
308,0.1171160493827160493827160494,616,6.723936709966449
309,0.1178777777777777777777777778,618,-3.8026663528921922
310,0.1186419753086419753086419753,620,-2.1914666951694213
311,0.1194086419753086419753086420,622,-4.977671803558664
312,0.1201777777777777777777777778,624,1.3631070460205879
313,0.1209493827160493827160493827,626,1.9774889322711187
314,0.1217234567901234567901234568,628,1.1638389463138268
315,0.1225,630,2.4898179476992603
316,0.1232790123456790123456790123,632,1.6686652598439962
317,0.1240604938271604938271604938,634,1.0755048186201552
318,0.1248444444444444444444444444,636,-3.9199777447731328
319,0.1256308641975308641975308642,638,-0.4883583200765662
320,0.1264197530864197530864197531,640,5.718498663967077
321,0.1272111111111111111111111111,642,0.9440681432531866
322,0.1280049382716049382716049383,644,0.8940726418577936
323,0.1288012345679012345679012346,646,0.34365754634616286
324,0.1296,648,-1.046072314176543
325,0.1304012345679012345679012346,650,1.3674458220227135
326,0.1312049382716049382716049383,652,-2.3482710950928065
327,0.1320111111111111111111111111,654,6.05141575299673
328,0.1328197530864197530864197531,656,0.7152467924819956
329,0.1336308641975308641975308642,658,1.045598049202141
330,0.1344444444444444444444444445,660,-2.42658266304376
331,0.1352604938271604938271604938,662,-0.69583007856655
332,0.1360790123456790123456790124,664,2.0914477503863282
333,0.1369,666,5.10344432029219
334,0.1377234567901234567901234568,668,0.7216146174344626
335,0.1385493827160493827160493827,670,4.532331048927014
336,0.1393777777777777777777777778,672,2.5589024252693577
337,0.1402086419753086419753086419,674,-1.125125638452843
338,0.1410419753086419753086419753,676,0.20843194605407928
339,0.1418777777777777777777777778,678,0.6026434903574553
340,0.1427160493827160493827160494,680,-3.9187089508706947
341,0.1435567901234567901234567901,682,-1.0972981539174849
342,0.1444,684,-0.6896651224931091
343,0.1452456790123456790123456790,686,0.10503319167698923
344,0.1460938271604938271604938271,688,0.9790066013401851
345,0.1469444444444444444444444444,690,0.7276521075204893
346,0.1477975308641975308641975308,692,-2.7931822009087104
347,0.1486530864197530864197530865,694,-3.694216974475716
348,0.1495111111111111111111111111,696,2.607955929036834
349,0.1503716049382716049382716050,698,2.1666664282252985
350,0.1512345679012345679012345679,700,-0.4216835611876883
351,0.1521,702,0.06941597786043459
352,0.1529679012345679012345679012,704,0.8392158213781592
353,0.1538382716049382716049382716,706,-0.7876026101468449
354,0.1547111111111111111111111111,708,0.20724232019139005
355,0.1555864197530864197530864197,710,-0.34823300746929375
