,Mass (amu),Time (microseconds),Amplitude
0,0,0,-3.861441747635634
1,0.000001234567901234567901234567901,2,0.3539345090275129
2,0.000004938271604938271604938271604,4,-1.4331311926311976
3,0.00001111111111111111111111111111,6,3.230956118894686
4,0.00001975308641975308641975308642,8,-3.57028896111836
5,0.00003086419753086419753086419754,10,0.9680699711045356
6,0.00004444444444444444444444444445,12,0.04905847085164263
7,0.00006049382716049382716049382716,14,1.704640191492869
8,0.00007901234567901234567901234568,16,-0.4371648267446161
9,0.0001,18,0.6900141886970133
10,0.0001234567901234567901234567901,20,0.7659729833684576
11,0.0001493827160493827160493827160,22,4.114498200444902
12,0.0001777777777777777777777777777,24,3.948346941550531
13,0.0002086419753086419753086419752,26,2.5142226701203163
14,0.0002419753086419753086419753088,28,-2.6688569464257483
15,0.0002777777777777777777777777779,30,-3.035434539238295
16,0.0003160493827160493827160493828,32,-2.201143544260514
17,0.0003567901234567901234567901235,34,-1.3466691489188745
18,0.0004,36,-3.126928574068939
19,0.0004456790123456790123456790123,38,0.5954118950736277
20,0.0004938271604938271604938271604,40,-0.4894131538547932
21,0.0005444444444444444444444444443,42,2.0345655726530585
22,0.0005975308641975308641975308640,44,1.5364442194427204
23,0.0006530864197530864197530864200,46,2.442598106384063
24,0.0007111111111111111111111111113,48,-0.5726590924138172
25,0.0007716049382716049382716049384,50,0.8294670373113666
26,0.0008345679012345679012345679013,52,-0.3774682261863131
27,0.0009,54,0.6680689124495801
28,0.0009679012345679012345679012345,56,-2.7314185761439402
29,0.001038271604938271604938271605,58,1.4199271163015161
30,0.001111111111111111111111111111,60,1.8898665263615626
31,0.001186419753086419753086419753,62,3.3480525888649426
32,0.001264197530864197530864197531,64,0.4506044470478112
33,0.001344444444444444444444444445,66,2.721299711305127
34,0.001427160493827160493827160494,68,0.3995387667786061
35,0.001512345679012345679012345679,70,2.0681787451469336
36,0.0016,72,-1.4616610508368053
37,0.001690123456790123456790123457,74,-1.0999530838603628
38,0.001782716049382716049382716049,76,3.0398551614707343
39,0.001877777777777777777777777777,78,0.609489323527869
40,0.001975308641975308641975308642,80,0.05411976779271541
41,0.002075308641975308641975308642,82,-1.6397370243833427
42,0.002177777777777777777777777778,84,0.2570320725100336
43,0.002282716049382716049382716050,86,-0.1894510126818529
44,0.002390123456790123456790123457,88,-2.6455696910442015
45,0.0025,90,-0.30903067927808137
46,0.002612345679012345679012345679,92,-2.3484454475311036
47,0.002727160493827160493827160494,94,-1.2119771927736944
48,0.002844444444444444444444444444,96,0.563071905226937
49,0.002964197530864197530864197530,98,1.1921872791825636
50,0.003086419753086419753086419754,100,0.9232766145628917
51,0.003211111111111111111111111111,102,-1.5397891039450389
52,0.003338271604938271604938271605,104,0.5560268921262227
53,0.003467901234567901234567901235,106,0.3134472672642433
54,0.0036,108,4.407207429834284
55,0.003734567901234567901234567901,110,-1.707459434780738
56,0.003871604938271604938271604938,112,-0.343521362856741
57,0.004011111111111111111111111111,114,-3.651839323962569
58,0.004153086419753086419753086419,116,1.0939127810933693
59,0.004297530864197530864197530865,118,-2.9856256487742856
60,0.004444444444444444444444444445,120,-0.7892617567492481
61,0.004593827160493827160493827161,122,-4.440868305823333
62,0.004745679012345679012345679012,124,-1.7806603595663395
63,0.0049,126,-2.7520409421866403
64,0.005056790123456790123456790123,128,-1.805251628416107
65,0.005216049382716049382716049382,130,2.950112425493934
66,0.005377777777777777777777777777,132,-1.2171800335775609
67,0.005541975308641975308641975308,134,-1.7742338239292437
68,0.005708641975308641975308641976,136,-0.5857958857909069
69,0.005877777777777777777777777778,138,-1.9614085410558655
70,0.006049382716049382716049382716,140,-1.4468763104973867
71,0.006223456790123456790123456790,142,-0.2413032249151094
72,0.0064,144,0.6111559779829112
73,0.006579012345679012345679012345,146,-2.613137182325042
74,0.006760493827160493827160493827,148,-0.2818437634591821
75,0.006944444444444444444444444444,150,0.531462087740221
76,0.007130864197530864197530864197,152,0.8634949086946101
77,0.007319753086419753086419753087,154,-1.9763148778234927
78,0.007511111111111111111111111112,156,-2.2011167918968404
79,0.007704938271604938271604938272,158,-3.3700240553941248
80,0.007901234567901234567901234568,160,-0.9150182914410525
81,0.0081,162,-3.329688502424495
82,0.008301234567901234567901234568,164,0.9670623070847771
83,0.008504938271604938271604938271,166,0.9346729150526817
84,0.008711111111111111111111111110,168,0.2603165302529954
85,0.008919753086419753086419753086,170,-0.4316770370437403
86,0.009130864197530864197530864198,172,1.0979233848297703
87,0.009344444444444444444444444445,174,3.931907662588427
88,0.009560493827160493827160493828,176,-1.577211602094792
89,0.009779012345679012345679012346,178,-0.11036935675929038
90,0.01,180,4.6630971301427
91,0.01022345679012345679012345679,182,1.8001041937890783
92,0.01044938271604938271604938271,184,2.065398090219568
93,0.01067777777777777777777777777,186,-2.6376330801392514
94,0.01090864197530864197530864197,188,-2.409186226288558
95,0.01114197530864197530864197532,190,-3.263696141740266
96,0.01137777777777777777777777778,192,-2.2743377109753466
97,0.01161604938271604938271604939,194,1.7149041470765367
98,0.01185679012345679012345679013,196,-2.4798924726111524
99,0.0121,198,-2.334012689723896
100,0.01234567901234567901234567901,200,0.11390010645582335
101,0.01259382716049382716049382716,202,-2.0891739782529153
102,0.01284444444444444444444444444,204,1.5274113785618164
103,0.01309753086419753086419753085,206,2.194561003559155
104,0.01335308641975308641975308643,208,2.037053654580599
105,0.01361111111111111111111111112,210,-1.4002921757163638
106,0.01387160493827160493827160494,212,-4.0754327914815125
107,0.01413456790123456790123456790,214,0.06209977694932157
108,0.0144,216,-3.637876399584451
109,0.01466790123456790123456790123,218,2.55945737877264
110,0.01493827160493827160493827160,220,4.2211854934304505
111,0.01521111111111111111111111110,222,1.3447022520199485
112,0.01548641975308641975308641974,224,1.441628505750401
113,0.01576419753086419753086419754,226,1.7060022648842272
114,0.01604444444444444444444444445,228,5.261231013610568
115,0.01632716049382716049382716050,230,-1.830407551920457
116,0.01661234567901234567901234568,232,0.7767651724491544
117,0.0169,234,1.9309670427595695
118,0.01719012345679012345679012345,236,-0.24962222193569153
119,0.01748271604938271604938271604,238,-3.010212162475252
120,0.01777777777777777777777777777,240,-0.5330299970730019
121,0.01807530864197530864197530863,242,1.7075919998822804
122,0.01837530864197530864197530865,244,-0.32402394608613955
123,0.01867777777777777777777777779,246,1.7013829721206213
124,0.01898271604938271604938271606,248,-0.6622463641433682
125,0.01929012345679012345679012346,250,0.9859617298454045
126,0.0196,252,-0.21709105507762327
127,0.01991234567901234567901234568,254,-3.0844465481903933
128,0.02022716049382716049382716049,256,0.6823311887751564
129,0.02054444444444444444444444443,258,-1.1613839371255277
130,0.02086419753086419753086419752,260,1.9645483509609665
131,0.02118641975308641975308641977,262,2.954847037004639
132,0.02151111111111111111111111112,264,1.778626783229582
133,0.02183827160493827160493827161,266,-2.4532238108446047
134,0.02216790123456790123456790124,268,2.759482266049055
135,0.0225,270,0.14321842371700155
136,0.02283456790123456790123456790,272,-0.5522468042753742
137,0.02317160493827160493827160493,274,1.3874219175521036
138,0.02351111111111111111111111110,276,2.281232808230112
139,0.02385308641975308641975308641,278,1.3107262845104877
140,0.02419753086419753086419753088,280,0.024225842821791604
141,0.02454444444444444444444444445,282,-0.6937775715536915
142,0.02489382716049382716049382717,284,5.648954905836516
143,0.02524567901234567901234567902,286,-0.6368790596654508
144,0.0256,288,1.9199272187223058
145,0.02595679012345679012345679012,290,-2.1968275484534514
146,0.02631604938271604938271604938,292,-0.5355465697053594
147,0.02667777777777777777777777777,294,1.4911650489564339
148,0.02704197530864197530864197529,296,-0.42608055551734103
149,0.02740864197530864197530864199,298,1.0822793790103364
150,0.02777777777777777777777777779,300,-3.4235552459959253
151,0.02814938271604938271604938272,302,-3.2034235061432805
152,0.02852345679012345679012345679,304,1.133199747595015
153,0.0289,306,1.4175863477836481
154,0.02927901234567901234567901234,308,-1.2237751535950316
155,0.02966049382716049382716049382,310,-1.5403058830112133
156,0.03004444444444444444444444443,312,-4.058931350425959
157,0.03043086419753086419753086418,314,-3.8804608271140717
158,0.03081975308641975308641975310,316,-0.12030109904582166
159,0.03121111111111111111111111112,318,1.5469782585171947
160,0.03160493827160493827160493828,320,-1.2613998973400855
161,0.03200123456790123456790123457,322,0.5476761088501788
162,0.0324,324,0.24369899498940836
163,0.03280123456790123456790123456,326,-4.307253685301149
164,0.03320493827160493827160493826,328,-2.639903794808191
165,0.03361111111111111111111111110,330,2.050084834188126
166,0.03401975308641975308641975307,332,0.8118313969816787
167,0.03443086419753086419753086421,334,-0.6052444772961271
168,0.03484444444444444444444444446,336,-1.375640576788134
169,0.03526049382716049382716049384,338,-2.9641216636161354
170,0.03567901234567901234567901235,340,0.3390275878406066
171,0.0361,342,1.7781102028085742
172,0.03652345679012345679012345679,344,-0.22157046861271712
173,0.03694938271604938271604938271,346,0.07255466436561664
174,0.03737777777777777777777777776,348,1.1588032293663095
175,0.03780864197530864197530864196,350,0.815735491525591
176,0.03824197530864197530864197533,352,-0.5083893839130343
177,0.03867777777777777777777777779,354,-2.3449543501978836
178,0.03911604938271604938271604939,356,0.5442190309861072
179,0.03955679012345679012345679013,358,-1.6628613030446178
180,0.04,360,-1.0977138230122345
181,0.04044567901234567901234567901,362,-1.7040756702067044
182,0.04089382716049382716049382715,364,0.8695581225974333
183,0.04134444444444444444444444443,366,1.0697669488597576
184,0.04179753086419753086419753085,368,1.8822694126546093
185,0.04225308641975308641975308644,370,2.7241866380577777
186,0.04271111111111111111111111112,372,1.6855975794986529
187,0.04317160493827160493827160495,374,1.2112410249089776
188,0.04363456790123456790123456791,376,-1.6951304185763068
189,0.0441,378,2.4242417264852145
190,0.04456790123456790123456790123,380,-1.9466755994793008
191,0.04503827160493827160493827160,382,0.8647603390325048
192,0.04551111111111111111111111110,384,2.3091095708384777
193,0.04598641975308641975308641973,386,-0.9054368593615962
194,0.04646419753086419753086419755,388,4.356755287296604
195,0.04694444444444444444444444446,390,0.4413203924986288
196,0.04742716049382716049382716050,392,-2.744946950893261
197,0.04791234567901234567901234568,394,0.8418265674094638
198,0.0484,396,0.0491436315433297
199,0.04889012345679012345679012345,398,-1.1913627493941006
200,0.04938271604938271604938271604,400,3.751922838706272
201,0.04987777777777777777777777776,402,-4.129913999146451
202,0.05037530864197530864197530862,404,-2.173450126379647
203,0.05087530864197530864197530866,406,-0.3240692964826487
204,0.05137777777777777777777777779,408,-1.9051088630688027
205,0.05188271604938271604938271606,410,-1.8102495584354565
206,0.05239012345679012345679012346,412,-1.5405967452005156
207,0.0529,414,5.332339466823839
208,0.05341234567901234567901234567,416,0.41625756216209564
209,0.05392716049382716049382716048,418,-0.25978398958562837
210,0.05444444444444444444444444443,420,0.4192891885846338
211,0.05496419753086419753086419751,422,0.7158020914715442
212,0.05548641975308641975308641977,424,2.501830637957988
213,0.05601111111111111111111111113,426,1.283000976117676
214,0.05653827160493827160493827162,428,-0.7233506224973687
215,0.05706790123456790123456790124,430,-2.7487108511268143
216,0.0576,432,-6.307004045708086
217,0.05813456790123456790123456790,434,-3.649723697164252
218,0.05867160493827160493827160493,436,3.4943897978536533
219,0.05921111111111111111111111109,438,4.724444188968186
220,0.05975308641975308641975308640,440,3.7689974254110408
221,0.06029753086419753086419753089,442,-0.8097530239810943
222,0.06084444444444444444444444446,444,3.0872612154339847
223,0.06139382716049382716049382717,446,1.2866499918720804
224,0.06194567901234567901234567902,448,-3.0717867692653624
225,0.0625,450,-1.542222048673768
226,0.06305679012345679012345679012,452,0.08885072719002649
227,0.06361604938271604938271604937,454,3.8644177581740755
228,0.06417777777777777777777777776,456,-1.927369638316976
229,0.06474197530864197530864197529,458,2.4437207070858618
230,0.06530864197530864197530864200,460,-0.028818033246344632
231,0.06587777777777777777777777779,462,0.9796519440851968
232,0.06644938271604938271604938273,464,2.6482077303974347
233,0.06702345679012345679012345680,466,0.5589415797772145
234,0.0676,468,-2.2979682420768275
235,0.06817901234567901234567901234,470,-2.4480973831026884
236,0.06876049382716049382716049382,472,6.043020201450171
237,0.06934444444444444444444444443,474,-0.0745569367567384
238,0.06993086419753086419753086417,476,-0.45910881735183384
239,0.07051975308641975308641975311,478,-0.462157401827924
240,0.07111111111111111111111111113,480,-0.7914935090522747
241,0.07170493827160493827160493828,482,-2.7513530166671014
242,0.07230123456790123456790123457,484,0.9183831136880233
243,0.0729,486,-4.38275456819364
244,0.07350123456790123456790123456,488,4.044062335919319
245,0.07410493827160493827160493826,490,3.2525543036689637
246,0.07471111111111111111111111109,492,-3.414652833621539
247,0.07531975308641975308641975306,494,-2.5833966217872275
248,0.07593086419753086419753086422,496,2.352910651036515
249,0.07654444444444444444444444446,498,-0.06967421405759269
250,0.07716049382716049382716049384,500,1.3995744977386693
251,0.07777901234567901234567901235,502,-1.2491360287403863
252,0.0784,504,-2.1798285125699426
253,0.07902345679012345679012345678,506,0.35724506509514004
254,0.07964938271604938271604938270,508,1.8856487947908047
255,0.08027777777777777777777777776,510,-2.7466236902484806
256,0.08090864197530864197530864195,512,-2.145633106737712
257,0.08154197530864197530864197533,514,3.088239923404056
258,0.08217777777777777777777777780,516,3.065864479129917
259,0.08281604938271604938271604940,518,0.2654172765165346
260,0.08345679012345679012345679013,520,0.995659816013558
261,0.0841,522,1.4075855312215795
262,0.08474567901234567901234567901,524,-3.680078675103127
263,0.08539382716049382716049382715,526,0.8720075216353572
264,0.08604444444444444444444444442,528,2.84806330021975
265,0.08669753086419753086419753084,530,-0.053709194181764924
266,0.08735308641975308641975308645,532,-1.8108728024302503
267,0.08801111111111111111111111113,534,2.1225132809686698
268,0.08867160493827160493827160495,536,3.085752661488217
269,0.08933456790123456790123456791,538,4.083991099136619
270,0.09,540,0.8911781961401272
271,0.09066790123456790123456790123,542,-0.5745818540173698
272,0.09133827160493827160493827159,544,0.5387599337523137
273,0.09201111111111111111111111109,546,-5.034802114888389
274,0.09268641975308641975308641973,548,1.504442372496869
275,0.09336419753086419753086419756,550,2.265742778761648
276,0.09404444444444444444444444446,552,1.609460479364133
277,0.09472716049382716049382716051,554,0.8639552439392792
278,0.09541234567901234567901234569,556,0.6920830257559827
279,0.0961,558,-0.0014087577671574088
280,0.09679012345679012345679012345,560,-2.401521302075384
281,0.09748271604938271604938271604,562,-3.7632007501371296
282,0.09817777777777777777777777776,564,0.8589826444193787
283,0.09887530864197530864197530861,566,-0.40927400322478585
284,0.09957530864197530864197530867,568,-0.28541757385794553
285,0.1002777777777777777777777778,570,0.6186213098885446
286,0.1009827160493827160493827161,572,3.598803548458646
287,0.1016901234567901234567901235,574,-2.156508929356291
288,0.1024,576,-2.373474360572554
289,0.1031123456790123456790123457,578,-0.8927507483688056
290,0.1038271604938271604938271605,580,0.07064045801950539
291,0.1045444444444444444444444444,582,-1.4851769783330395
292,0.1052641975308641975308641975,584,-1.35425566523693
293,0.1059864197530864197530864198,586,1.9393272339911847
294,0.1067111111111111111111111111,588,2.8262931224319203
295,0.1074382716049382716049382716,590,-0.56261959645949
296,0.1081679012345679012345679012,592,-1.9507456982447964
297,0.1089,594,1.1583799053581352
298,0.1096345679012345679012345679,596,3.414697320552718
299,0.1103716049382716049382716049,598,1.657672855636353
300,0.1111111111111111111111111111,600,-1.479516955450444
301,0.1118530864197530864197530864,602,5.458978134996599
302,0.1125975308641975308641975309,604,4.654111662467545
303,0.1133444444444444444444444445,606,-1.819269243090309
304,0.1140938271604938271604938272,608,0.10773583763212453
305,0.1148456790123456790123456790,610,-4.089329485751737
306,0.1156,612,2.5794800284414325
307,0.1163567901234567901234567901,614,4.677955936093032
308,0.1171160493827160493827160494,616,-2.14934008833868
309,0.1178777777777777777777777778,618,1.8877446423586912
310,0.1186419753086419753086419753,620,-1.0373644403153173
311,0.1194086419753086419753086420,622,-1.0551296572980797
312,0.1201777777777777777777777778,624,-2.179783273446439
313,0.1209493827160493827160493827,626,3.0504089330365685
314,0.1217234567901234567901234568,628,-0.14139364991467693
315,0.1225,630,-1.7614651230745222
316,0.1232790123456790123456790123,632,-1.3296962360262747
317,0.1240604938271604938271604938,634,0.47076572369194153
318,0.1248444444444444444444444444,636,0.2258444816722678
319,0.1256308641975308641975308642,638,3.12899618026681
320,0.1264197530864197530864197531,640,-1.8324425467829224
321,0.1272111111111111111111111111,642,0.03469352551222951
322,0.1280049382716049382716049383,644,-1.7167349928911166
323,0.1288012345679012345679012346,646,3.4355589095115606
324,0.1296,648,1.1979570226157243
325,0.1304012345679012345679012346,650,5.334854908391318
326,0.1312049382716049382716049383,652,3.6405273878497058
327,0.1320111111111111111111111111,654,-2.065185043276795
328,0.1328197530864197530864197531,656,0.794328434021646
329,0.1336308641975308641975308642,658,5.181983828233981
330,0.1344444444444444444444444445,660,0.17196273790548103
331,0.1352604938271604938271604938,662,0.22078364040369092
332,0.1360790123456790123456790124,664,-0.28298383120401704
333,0.1369,666,2.249110308284543
334,0.1377234567901234567901234568,668,-1.3224268044572431
335,0.1385493827160493827160493827,670,-1.597853009673084
336,0.1393777777777777777777777778,672,-0.015129402430294278
337,0.1402086419753086419753086419,674,-3.9283002109532332
338,0.1410419753086419753086419753,676,-0.0848489150262385
339,0.1418777777777777777777777778,678,0.013849661261546065
340,0.1427160493827160493827160494,680,-1.550964751769327
341,0.1435567901234567901234567901,682,1.7526991506304992
342,0.1444,684,3.8536646325767454
343,0.1452456790123456790123456790,686,-0.6601868620473398
344,0.1460938271604938271604938271,688,-2.368339634538289
345,0.1469444444444444444444444444,690,2.9761900459807897
346,0.1477975308641975308641975308,692,-0.7227554872360054
347,0.1486530864197530864197530865,694,-0.8930406802432476
348,0.1495111111111111111111111111,696,-0.0406911697953578
349,0.1503716049382716049382716050,698,0.4063227969339573
350,0.1512345679012345679012345679,700,-1.6862787299693631
351,0.1521,702,3.3244265020487958
352,0.1529679012345679012345679012,704,4.005600005535438
353,0.1538382716049382716049382716,706,-0.26801502921529885
354,0.1547111111111111111111111111,708,-4.027538254291472
