,Mass (amu),Time (microseconds),Amplitude
0,0,0,2.2020972850952525
1,0.000001234567901234567901234567901,2,-4.093511243780022
2,0.000004938271604938271604938271604,4,0.642330705925348
3,0.00001111111111111111111111111111,6,-1.745816028904067
4,0.00001975308641975308641975308642,8,0.06966602188122105
5,0.00003086419753086419753086419754,10,-1.8671486918735967
6,0.00004444444444444444444444444445,12,-3.9398969315202432
7,0.00006049382716049382716049382716,14,-0.4247839369242943
8,0.00007901234567901234567901234568,16,3.3533808216673546
9,0.0001,18,-1.93197674533596
10,0.0001234567901234567901234567901,20,2.0980073343752754
11,0.0001493827160493827160493827160,22,-2.7209670208636316
12,0.0001777777777777777777777777777,24,-3.2041725126458034
13,0.0002086419753086419753086419752,26,2.663662047546246
14,0.0002419753086419753086419753088,28,-2.3750197757667846
15,0.0002777777777777777777777777779,30,2.680658592589487
16,0.0003160493827160493827160493828,32,-1.2872924665556769
17,0.0003567901234567901234567901235,34,-4.356737506485738
18,0.0004,36,-1.9642340173730948
19,0.0004456790123456790123456790123,38,-1.4894105608416222
20,0.0004938271604938271604938271604,40,0.41240579580555725
21,0.0005444444444444444444444444443,42,1.9824700779068898
22,0.0005975308641975308641975308640,44,0.8854897466581085
23,0.0006530864197530864197530864200,46,-3.6745524985645854
24,0.0007111111111111111111111111113,48,-0.10443309269030164
25,0.0007716049382716049382716049384,50,-2.471522975149557
26,0.0008345679012345679012345679013,52,0.17009363491374882
27,0.0009,54,3.657317621409197
28,0.0009679012345679012345679012345,56,0.028701359247345095
29,0.001038271604938271604938271605,58,0.32975977311796156
30,0.001111111111111111111111111111,60,-4.374983791646549
31,0.001186419753086419753086419753,62,0.7927714417419004
32,0.001264197530864197530864197531,64,-4.8842235646211165
33,0.001344444444444444444444444445,66,5.017268928704878
34,0.001427160493827160493827160494,68,1.6736539822905152
35,0.001512345679012345679012345679,70,3.1466012910816312
36,0.0016,72,-4.458780615022309
37,0.001690123456790123456790123457,74,0.15518410772671465
38,0.001782716049382716049382716049,76,-1.5780438862783628
39,0.001877777777777777777777777777,78,-2.0312743561495807
40,0.001975308641975308641975308642,80,-4.263102454371803
41,0.002075308641975308641975308642,82,0.1079359181804826
42,0.002177777777777777777777777778,84,1.0988458232416929
43,0.002282716049382716049382716050,86,0.24385525132087663
44,0.002390123456790123456790123457,88,0.35471509785788413
45,0.0025,90,0.16033508213823267
46,0.002612345679012345679012345679,92,1.4163425162239034
47,0.002727160493827160493827160494,94,-1.1281800807371367
48,0.002844444444444444444444444444,96,-3.577748347744416
49,0.002964197530864197530864197530,98,-1.576062856311405
50,0.003086419753086419753086419754,100,-0.0005855372373583894
51,0.003211111111111111111111111111,102,1.780726814901426
52,0.003338271604938271604938271605,104,-1.8412368108236523
53,0.003467901234567901234567901235,106,1.0412117735205695
54,0.0036,108,1.050745525825268
55,0.003734567901234567901234567901,110,0.07589187580255548
56,0.003871604938271604938271604938,112,-0.5603881425655008
57,0.004011111111111111111111111111,114,1.9977123696139225
58,0.004153086419753086419753086419,116,-3.221451521003456
59,0.004297530864197530864197530865,118,0.021881805545308643
60,0.004444444444444444444444444445,120,0.2991019289515004
61,0.004593827160493827160493827161,122,-0.27379152235919385
62,0.004745679012345679012345679012,124,-1.9198846283100244
63,0.0049,126,2.071934796914884
64,0.005056790123456790123456790123,128,2.6754461735839388
65,0.005216049382716049382716049382,130,-3.084508760205947
66,0.005377777777777777777777777777,132,-2.628688982391532
67,0.005541975308641975308641975308,134,-6.099200708109537
68,0.005708641975308641975308641976,136,1.4296295895385582
69,0.005877777777777777777777777778,138,-3.3313788728787
70,0.006049382716049382716049382716,140,-1.7808655057110847
71,0.006223456790123456790123456790,142,-3.5863142475942276
72,0.0064,144,2.77572843738774
73,0.006579012345679012345679012345,146,-0.9128332133864209
74,0.006760493827160493827160493827,148,1.6725230326604348
75,0.006944444444444444444444444444,150,-1.5536112377227853
76,0.007130864197530864197530864197,152,-1.0402928516531122
77,0.007319753086419753086419753087,154,1.72737066117549
78,0.007511111111111111111111111112,156,-2.1531643559623013
79,0.007704938271604938271604938272,158,4.173042652068188
80,0.007901234567901234567901234568,160,3.751270141188406
81,0.0081,162,-2.4078732453650877
82,0.008301234567901234567901234568,164,0.8146646089359826
83,0.008504938271604938271604938271,166,5.733140977281366
84,0.008711111111111111111111111110,168,-3.37609308669323
85,0.008919753086419753086419753086,170,-4.687354548733175
86,0.009130864197530864197530864198,172,0.8643977150460559
87,0.009344444444444444444444444445,174,3.9789897314984204
88,0.009560493827160493827160493828,176,-5.75826982820481
89,0.009779012345679012345679012346,178,4.789233895100587
90,0.01,180,-3.307155488092638
91,0.01022345679012345679012345679,182,-1.7126680054281032
92,0.01044938271604938271604938271,184,-2.174246138454451
93,0.01067777777777777777777777777,186,1.4984502663783281
94,0.01090864197530864197530864197,188,0.6388812914597582
95,0.01114197530864197530864197532,190,0.14073885843245637
96,0.01137777777777777777777777778,192,-2.243050018286583
97,0.01161604938271604938271604939,194,-2.7519116586033454
98,0.01185679012345679012345679013,196,4.328306176754527
99,0.0121,198,-1.5152023865854258
100,0.01234567901234567901234567901,200,-0.4224627633733133
101,0.01259382716049382716049382716,202,-2.4724769865649963
102,0.01284444444444444444444444444,204,1.235643344244301
103,0.01309753086419753086419753085,206,-3.6599012564820614
104,0.01335308641975308641975308643,208,1.7307454714478565
105,0.01361111111111111111111111112,210,4.492013730518896
106,0.01387160493827160493827160494,212,-0.6358331712348843
107,0.01413456790123456790123456790,214,-1.7285442310479582
108,0.0144,216,0.25786149956169824
109,0.01466790123456790123456790123,218,2.153537143181558
110,0.01493827160493827160493827160,220,1.4966898054490354
111,0.01521111111111111111111111110,222,-1.5759678493374716
112,0.01548641975308641975308641974,224,4.7931328180136115
113,0.01576419753086419753086419754,226,3.253905073607867
114,0.01604444444444444444444444445,228,1.0844996834184328
115,0.01632716049382716049382716050,230,3.5135065150348765
116,0.01661234567901234567901234568,232,5.997602501423065
117,0.0169,234,-1.75602819337264
118,0.01719012345679012345679012345,236,1.5605505754727187
119,0.01748271604938271604938271604,238,-0.4590174021504804
120,0.01777777777777777777777777777,240,6.0344648752041135
121,0.01807530864197530864197530863,242,-2.666945721735546
122,0.01837530864197530864197530865,244,2.2956096726638187
123,0.01867777777777777777777777779,246,0.5376856022384721
124,0.01898271604938271604938271606,248,-3.367525246232044
125,0.01929012345679012345679012346,250,3.3021877111478672
126,0.0196,252,4.139623477375804
127,0.01991234567901234567901234568,254,1.8917915484870191
128,0.02022716049382716049382716049,256,1.3489794457678796
129,0.02054444444444444444444444443,258,-1.2408698073195605
130,0.02086419753086419753086419752,260,2.743565116069498
131,0.02118641975308641975308641977,262,1.6892203929381802
132,0.02151111111111111111111111112,264,3.1177342736936557
133,0.02183827160493827160493827161,266,3.9039797802296428
134,0.02216790123456790123456790124,268,0.6167144984289696
135,0.0225,270,-0.4225580141334539
136,0.02283456790123456790123456790,272,2.2225607374439424
137,0.02317160493827160493827160493,274,0.5036973441083168
138,0.02351111111111111111111111110,276,-0.9224474945836718
139,0.02385308641975308641975308641,278,1.9474092003865708
140,0.02419753086419753086419753088,280,-1.0549324198081478
141,0.02454444444444444444444444445,282,0.9103976325776703
142,0.02489382716049382716049382717,284,-0.26701013109703153
143,0.02524567901234567901234567902,286,1.6238580004412628
144,0.0256,288,-1.4420638580166392
145,0.02595679012345679012345679012,290,0.629179433926922
146,0.02631604938271604938271604938,292,-0.5614879676940738
147,0.02667777777777777777777777777,294,0.031292255135613005
148,0.02704197530864197530864197529,296,-0.4345622127652171
149,0.02740864197530864197530864199,298,1.9181664778352052
150,0.02777777777777777777777777779,300,0.6168256794510667
151,0.02814938271604938271604938272,302,1.475634532435802
152,0.02852345679012345679012345679,304,-0.02823727374827808
153,0.0289,306,1.4592105312652244
154,0.02927901234567901234567901234,308,3.7412376884165544
155,0.02966049382716049382716049382,310,-0.2906783417035959
156,0.03004444444444444444444444443,312,-1.633649371195824
157,0.03043086419753086419753086418,314,0.007081249678038775
158,0.03081975308641975308641975310,316,1.8433798680204072
159,0.03121111111111111111111111112,318,-1.0244032934631495
160,0.03160493827160493827160493828,320,4.250475320245736
161,0.03200123456790123456790123457,322,-3.506455567494042
162,0.0324,324,-0.0994803500511693
163,0.03280123456790123456790123456,326,-2.6283440602257535
164,0.03320493827160493827160493826,328,-0.055317628412172686
165,0.03361111111111111111111111110,330,2.604637744711818
166,0.03401975308641975308641975307,332,3.1396544042354266
167,0.03443086419753086419753086421,334,-1.642649138787082
168,0.03484444444444444444444444446,336,-0.3099128680633052
169,0.03526049382716049382716049384,338,-4.121381135775363
170,0.03567901234567901234567901235,340,2.253123810251231
171,0.0361,342,1.3503974090104285
172,0.03652345679012345679012345679,344,0.512624665929841
173,0.03694938271604938271604938271,346,-0.4839332459055447
174,0.03737777777777777777777777776,348,0.45594300675435223
175,0.03780864197530864197530864196,350,-0.1985915136551325
176,0.03824197530864197530864197533,352,1.7403753843386556
177,0.03867777777777777777777777779,354,2.9108576638137698
178,0.03911604938271604938271604939,356,4.340793978402018
179,0.03955679012345679012345679013,358,1.3042106606901511
180,0.04,360,0.3512265678488314
181,0.04044567901234567901234567901,362,2.2831670739549663
182,0.04089382716049382716049382715,364,-0.11948211807866355
183,0.04134444444444444444444444443,366,1.6068613455344611
184,0.04179753086419753086419753085,368,-0.18371120306641453
185,0.04225308641975308641975308644,370,-1.6891250834578446
186,0.04271111111111111111111111112,372,1.253498501498489
187,0.04317160493827160493827160495,374,5.3999268700613055
188,0.04363456790123456790123456791,376,-1.7309533596454694
189,0.0441,378,1.0880852216928416
190,0.04456790123456790123456790123,380,-2.8033647208432284
191,0.04503827160493827160493827160,382,1.2239852431943405
192,0.04551111111111111111111111110,384,1.0173054496141547
193,0.04598641975308641975308641973,386,1.0094168622009991
194,0.04646419753086419753086419755,388,-0.2480545816482626
195,0.04694444444444444444444444446,390,2.0155589814981574
196,0.04742716049382716049382716050,392,-1.659389799208977
197,0.04791234567901234567901234568,394,-1.5098396398914806
198,0.0484,396,-1.5270007404977242
199,0.04889012345679012345679012345,398,3.7612942685516013
200,0.04938271604938271604938271604,400,-3.0698821074220755
201,0.04987777777777777777777777776,402,-1.9180116436782535
202,0.05037530864197530864197530862,404,1.4319698195192443
203,0.05087530864197530864197530866,406,-1.0408881145059439
204,0.05137777777777777777777777779,408,7.182990220386357
205,0.05188271604938271604938271606,410,3.5922111854172356
206,0.05239012345679012345679012346,412,0.9893613723078785
207,0.0529,414,-1.7136525086848073
208,0.05341234567901234567901234567,416,-7.330602947304019
209,0.05392716049382716049382716048,418,-0.6428093840657623
210,0.05444444444444444444444444443,420,0.6586326329739617
211,0.05496419753086419753086419751,422,-1.8867629442206768
212,0.05548641975308641975308641977,424,-3.302180431124653
213,0.05601111111111111111111111113,426,-0.7285181197773518
214,0.05653827160493827160493827162,428,-1.6768937135895745
215,0.05706790123456790123456790124,430,1.0169608503646586
216,0.0576,432,-2.0969462066843416
217,0.05813456790123456790123456790,434,-2.780279245791969
218,0.05867160493827160493827160493,436,-4.124551861656653
219,0.05921111111111111111111111109,438,-6.1491353147407395
220,0.05975308641975308641975308640,440,-1.4736855398749937
221,0.06029753086419753086419753089,442,2.4612749453935545
222,0.06084444444444444444444444446,444,-0.5319761318292019
223,0.06139382716049382716049382717,446,-4.871431124498596
224,0.06194567901234567901234567902,448,1.2982090834594602
225,0.0625,450,-1.535693232670114
226,0.06305679012345679012345679012,452,-5.478259704793939
227,0.06361604938271604938271604937,454,-1.7271599064625165
228,0.06417777777777777777777777776,456,1.2393227553092172
229,0.06474197530864197530864197529,458,1.8668046442788877
230,0.06530864197530864197530864200,460,-0.3058305038078994
231,0.06587777777777777777777777779,462,-2.05608828882081
232,0.06644938271604938271604938273,464,-1.994846169792473
233,0.06702345679012345679012345680,466,-0.05078405373262346
234,0.0676,468,1.3560267100357353
235,0.06817901234567901234567901234,470,-2.412588721607987
236,0.06876049382716049382716049382,472,-1.1962979255362791
237,0.06934444444444444444444444443,474,-2.4941712845659167
238,0.06993086419753086419753086417,476,3.2472284831211313
239,0.07051975308641975308641975311,478,6.829683533837122
240,0.07111111111111111111111111113,480,-2.203604438954361
241,0.07170493827160493827160493828,482,-3.8610142144175326
242,0.07230123456790123456790123457,484,-1.254695937130803
243,0.0729,486,-1.034504537390943
244,0.07350123456790123456790123456,488,-1.0588283868768102
245,0.07410493827160493827160493826,490,-0.09913322164397834
246,0.07471111111111111111111111109,492,-2.2888078753240695
247,0.07531975308641975308641975306,494,0.5005220199220545
248,0.07593086419753086419753086422,496,-0.3015783173980884
249,0.07654444444444444444444444446,498,-0.34540129442861883
250,0.07716049382716049382716049384,500,-1.7363381245500615
251,0.07777901234567901234567901235,502,-2.3810797061843565
252,0.0784,504,2.4041171122047795
253,0.07902345679012345679012345678,506,0.01149895616996975
254,0.07964938271604938271604938270,508,-1.7110038814939694
255,0.08027777777777777777777777776,510,0.03177393351796371
256,0.08090864197530864197530864195,512,-1.923757643307446
257,0.08154197530864197530864197533,514,2.9085355428075634
258,0.08217777777777777777777777780,516,0.36106928281151773
259,0.08281604938271604938271604940,518,-2.6799572284144464
260,0.08345679012345679012345679013,520,-0.41728122065572
261,0.0841,522,1.075345738904676
262,0.08474567901234567901234567901,524,-0.5280703983793898
263,0.08539382716049382716049382715,526,2.6236323525963035
264,0.08604444444444444444444444442,528,-4.325913990876613
265,0.08669753086419753086419753084,530,-4.080222970942089
266,0.08735308641975308641975308645,532,-0.028452672040857337
267,0.08801111111111111111111111113,534,3.774731391625073
268,0.08867160493827160493827160495,536,1.5148649053913992
269,0.08933456790123456790123456791,538,-2.1097269210548406
270,0.09,540,-1.3778548066638494
271,0.09066790123456790123456790123,542,2.528683435877165
272,0.09133827160493827160493827159,544,2.402045639012109
273,0.09201111111111111111111111109,546,1.0128686078969404
274,0.09268641975308641975308641973,548,-3.7118889011065694
275,0.09336419753086419753086419756,550,5.051344566514634
276,0.09404444444444444444444444446,552,-5.330768644718154
277,0.09472716049382716049382716051,554,-0.03750083846559079
278,0.09541234567901234567901234569,556,3.8077965101096694
279,0.0961,558,-4.327692208683441
280,0.09679012345679012345679012345,560,-2.267404350690773
281,0.09748271604938271604938271604,562,-2.8326893236832182
282,0.09817777777777777777777777776,564,-2.7873402457574534
283,0.09887530864197530864197530861,566,1.9369975628937601
284,0.09957530864197530864197530867,568,-0.5320823669037724
285,0.1002777777777777777777777778,570,0.34291860350065606
286,0.1009827160493827160493827161,572,3.729795374992814
287,0.1016901234567901234567901235,574,0.7055552153856185
288,0.1024,576,1.4591606491042857
289,0.1031123456790123456790123457,578,-3.3432031292848174
290,0.1038271604938271604938271605,580,-1.9269294806653858
291,0.1045444444444444444444444444,582,-0.938334674888794
292,0.1052641975308641975308641975,584,1.8678797106393419
293,0.1059864197530864197530864198,586,3.313825423838732
294,0.1067111111111111111111111111,588,1.8335336067233978
295,0.1074382716049382716049382716,590,-4.10182977732546
296,0.1081679012345679012345679012,592,2.525185277136868
297,0.1089,594,2.045879652270809
298,0.1096345679012345679012345679,596,1.1286157104610326
299,0.1103716049382716049382716049,598,3.294302284378177
300,0.1111111111111111111111111111,600,-0.02511471884341255
301,0.1118530864197530864197530864,602,3.6536224397501136
302,0.1125975308641975308641975309,604,1.452239787275902
303,0.1133444444444444444444444445,606,1.072252049011716
304,0.1140938271604938271604938272,608,-1.5332756829038272
305,0.1148456790123456790123456790,610,2.405246649462498
306,0.1156,612,1.1721060237582992
307,0.1163567901234567901234567901,614,2.680658592589489
308,0.1171160493827160493827160494,616,-3.442179328329795
309,0.1178777777777777777777777778,618,-0.2690441420609719
310,0.1186419753086419753086419753,620,-1.3226526823942215
311,0.1194086419753086419753086420,622,5.7838261856965865
312,0.1201777777777777777777777778,624,-0.03769271229871728
313,0.1209493827160493827160493827,626,-6.036255869544157
314,0.1217234567901234567901234568,628,-1.7744322503764347
315,0.1225,630,-0.14581995433346798
316,0.1232790123456790123456790123,632,2.307719808626791
317,0.1240604938271604938271604938,634,2.2247916291447014
318,0.1248444444444444444444444444,636,-2.2653244860494937
319,0.1256308641975308641975308642,638,-2.0965961499953174
320,0.1264197530864197530864197531,640,1.2237449779517038
321,0.1272111111111111111111111111,642,-3.243463868546217
322,0.1280049382716049382716049383,644,2.6077722213671684
323,0.1288012345679012345679012346,646,0.3945147520492411
324,0.1296,648,-1.2604057443640397
325,0.1304012345679012345679012346,650,0.25205053136594285
326,0.1312049382716049382716049383,652,-2.867050943421131
327,0.1320111111111111111111111111,654,3.936884114110289
328,0.1328197530864197530864197531,656,0.2243501990060688
329,0.1336308641975308641975308642,658,0.5539638599806875
330,0.1344444444444444444444444445,660,-3.3975269285227796
331,0.1352604938271604938271604938,662,2.3405100292834247
332,0.1360790123456790123456790124,664,2.2123488291175777
333,0.1369,666,2.4233266878517314
334,0.1377234567901234567901234568,668,-0.6671133404370414
335,0.1385493827160493827160493827,670,0.30514348875979563
336,0.1393777777777777777777777778,672,1.6958600625933296
337,0.1402086419753086419753086419,674,3.266872445723972
338,0.1410419753086419753086419753,676,-1.7253300814988168
339,0.1418777777777777777777777778,678,2.5287448662848484
340,0.1427160493827160493827160494,680,2.7665313545042043
341,0.1435567901234567901234567901,682,-0.21240034457245183
342,0.1444,684,-5.084505763102236
343,0.1452456790123456790123456790,686,-4.284949830499808
344,0.1460938271604938271604938271,688,-1.3888287806064143
345,0.1469444444444444444444444444,690,-0.5299902843127804
346,0.1477975308641975308641975308,692,-2.522001707323197
347,0.1486530864197530864197530865,694,-4.37999537372449
348,0.1495111111111111111111111111,696,2.068531333441257
349,0.1503716049382716049382716050,698,-0.02802879097801757
350,0.1512345679012345679012345679,700,4.429797493124959
351,0.1521,702,1.8658463699075474
352,0.1529679012345679012345679012,704,-0.10636909649149685
353,0.1538382716049382716049382716,706,1.668994602154949
354,0.1547111111111111111111111111,708,-5.384535709730904
