,Mass (amu),Time (microseconds),Amplitude
0,0,0,1.2402675228113178
1,0.000001234567901234567901234567901,2,1.5258979112982443
2,0.000004938271604938271604938271604,4,1.0379742969779346
3,0.00001111111111111111111111111111,6,-2.977678501455161
4,0.00001975308641975308641975308642,8,0.7629829239843622
5,0.00003086419753086419753086419754,10,-2.500207158042405
6,0.00004444444444444444444444444445,12,-1.1431633251984463
7,0.00006049382716049382716049382716,14,-3.121173349374391
8,0.00007901234567901234567901234568,16,-0.8374256992279245
9,0.0001,18,-2.3815873561181453
10,0.0001234567901234567901234567901,20,4.942407131213149
11,0.0001493827160493827160493827160,22,1.137077043048313
12,0.0001777777777777777777777777777,24,-0.9369126193810713
13,0.0002086419753086419753086419752,26,0.6442805387736172
14,0.0002419753086419753086419753088,28,-1.0631009546979975
15,0.0002777777777777777777777777779,30,3.8446215074774748
16,0.0003160493827160493827160493828,32,-1.1304999689157411
17,0.0003567901234567901234567901235,34,1.4812702816724106
18,0.0004,36,0.7390377691077811
19,0.0004456790123456790123456790123,38,-1.085558674702467
20,0.0004938271604938271604938271604,40,0.3866495828845187
21,0.0005444444444444444444444444443,42,-1.3025393830054626
22,0.0005975308641975308641975308640,44,-1.899795298796391
23,0.0006530864197530864197530864200,46,0.17301310231537445
24,0.0007111111111111111111111111113,48,1.1675031803650264
25,0.0007716049382716049382716049384,50,1.0150346755542856
26,0.0008345679012345679012345679013,52,-1.2590238666779028
27,0.0009,54,3.2071150588354875
28,0.0009679012345679012345679012345,56,-0.42710971182377905
29,0.001038271604938271604938271605,58,0.933845627529704
30,0.001111111111111111111111111111,60,1.148697998740211
31,0.001186419753086419753086419753,62,-0.8759639359652716
32,0.001264197530864197530864197531,64,-3.4854549700141453
33,0.001344444444444444444444444445,66,-1.7267967984390469
34,0.001427160493827160493827160494,68,-1.524480335298224
35,0.001512345679012345679012345679,70,-0.07920210300264155
36,0.0016,72,-1.1351851083872375
37,0.001690123456790123456790123457,74,-0.7195668824189871
38,0.001782716049382716049382716049,76,2.3463604815655525
39,0.001877777777777777777777777777,78,2.2117329745793928
40,0.001975308641975308641975308642,80,-1.4391665800828055
41,0.002075308641975308641975308642,82,-3.6600042673802786
42,0.002177777777777777777777777778,84,1.8014735336871681
43,0.002282716049382716049382716050,86,0.5238912149575777
44,0.002390123456790123456790123457,88,1.6961133424601322
45,0.0025,90,0.060638706572903954
46,0.002612345679012345679012345679,92,1.952096036612543
47,0.002727160493827160493827160494,94,-0.11878665462857609
48,0.002844444444444444444444444444,96,-3.2676426808649714
49,0.002964197530864197530864197530,98,-3.010314482940776
50,0.003086419753086419753086419754,100,-2.931974421340348
51,0.003211111111111111111111111111,102,-0.8480739878446958
52,0.003338271604938271604938271605,104,2.5361477564908284
53,0.003467901234567901234567901235,106,1.7068340834767806
54,0.0036,108,0.5518149083022846
55,0.003734567901234567901234567901,110,-2.8167290557054234
56,0.003871604938271604938271604938,112,-1.7438815749535823
57,0.004011111111111111111111111111,114,-2.3787779431116554
58,0.004153086419753086419753086419,116,0.6494840285138543
59,0.004297530864197530864197530865,118,0.0718451873366571
60,0.004444444444444444444444444445,120,1.9245341200560835
61,0.004593827160493827160493827161,122,-1.3907971729902684
62,0.004745679012345679012345679012,124,-0.7439928799589713
63,0.0049,126,-0.39208308275040377
64,0.005056790123456790123456790123,128,-4.285599684732812
65,0.005216049382716049382716049382,130,-0.7729546103845165
66,0.005377777777777777777777777777,132,3.70791744173298
67,0.005541975308641975308641975308,134,2.0901680660731183
68,0.005708641975308641975308641976,136,-1.1037725842235437
69,0.005877777777777777777777777778,138,1.2541870809493048
70,0.006049382716049382716049382716,140,4.603923096299343
71,0.006223456790123456790123456790,142,-2.3285850649709943
72,0.0064,144,-0.6778752430519932
73,0.006579012345679012345679012345,146,0.9088248876911309
74,0.006760493827160493827160493827,148,2.2631261303051784
75,0.006944444444444444444444444444,150,-3.3337333874054265
76,0.007130864197530864197530864197,152,-0.791610305686169
77,0.007319753086419753086419753087,154,0.16610377705280752
78,0.007511111111111111111111111112,156,0.281208577759815
79,0.007704938271604938271604938272,158,-2.12790370702676
80,0.007901234567901234567901234568,160,0.7550898026581159
81,0.0081,162,1.5007575085779779
82,0.008301234567901234567901234568,164,1.8815875398813544
83,0.008504938271604938271604938271,166,-0.9604825102394768
84,0.008711111111111111111111111110,168,2.2431319454605956
85,0.008919753086419753086419753086,170,-0.2767530851179651
86,0.009130864197530864197530864198,172,2.5254016382372177
87,0.009344444444444444444444444445,174,-1.6367386613553956
88,0.009560493827160493827160493828,176,0.2293715010253123
89,0.009779012345679012345679012346,178,4.176409004746381
90,0.01,180,-3.067954632031501
91,0.01022345679012345679012345679,182,-4.543791991325455
92,0.01044938271604938271604938271,184,1.8294672900089972
93,0.01067777777777777777777777777,186,2.4893625228210596
94,0.01090864197530864197530864197,188,-1.3444342327501009
95,0.01114197530864197530864197532,190,-2.2108701917249283
96,0.01137777777777777777777777778,192,2.0781064500569033
97,0.01161604938271604938271604939,194,-2.9072361525319823
98,0.01185679012345679012345679013,196,2.0474025991436675
99,0.0121,198,1.1421348464441188
100,0.01234567901234567901234567901,200,0.36504106286996185
101,0.01259382716049382716049382716,202,2.671719882676168
102,0.01284444444444444444444444444,204,-1.061691157066627
103,0.01309753086419753086419753085,206,-0.4333680424549661
104,0.01335308641975308641975308643,208,-0.6294003455783905
105,0.01361111111111111111111111112,210,-0.4571600112594164
106,0.01387160493827160493827160494,212,0.6245314940125871
107,0.01413456790123456790123456790,214,2.0846285410880743
108,0.0144,216,-0.48816200747252386
109,0.01466790123456790123456790123,218,0.7505656858788321
110,0.01493827160493827160493827160,220,-0.6933567141200145
111,0.01521111111111111111111111110,222,-2.9763738481521744
112,0.01548641975308641975308641974,224,0.46085212844188267
113,0.01576419753086419753086419754,226,-1.9283928545813729
114,0.01604444444444444444444444445,228,1.5242255533575844
115,0.01632716049382716049382716050,230,-4.5197943772184646
116,0.01661234567901234567901234568,232,-0.5075159803361787
117,0.0169,234,0.28496714695200687
118,0.01719012345679012345679012345,236,-0.0014877629175608586
119,0.01748271604938271604938271604,238,0.128409143330313
120,0.01777777777777777777777777777,240,-1.2215043584740735
121,0.01807530864197530864197530863,242,1.3568269467145258
122,0.01837530864197530864197530865,244,3.8203460692136275
123,0.01867777777777777777777777779,246,3.5379753583232754
124,0.01898271604938271604938271606,248,-2.5723313927767326
125,0.01929012345679012345679012346,250,-0.14476729436009486
126,0.0196,252,-1.158869697560471
127,0.01991234567901234567901234568,254,1.5791624058673162
128,0.02022716049382716049382716049,256,1.4871544611007168
129,0.02054444444444444444444444443,258,0.046461539720093016
130,0.02086419753086419753086419752,260,-1.8554669671035515
131,0.02118641975308641975308641977,262,-0.035469647184933374
132,0.02151111111111111111111111112,264,-1.6128654004852743
133,0.02183827160493827160493827161,266,3.1899536949259546
134,0.02216790123456790123456790124,268,0.9064746029243476
135,0.0225,270,-0.8879977319927722
136,0.02283456790123456790123456790,272,1.2505238508042362
137,0.02317160493827160493827160493,274,-1.3847834795762244
138,0.02351111111111111111111111110,276,-3.618076055359845
139,0.02385308641975308641975308641,278,1.1013433918137907
140,0.02419753086419753086419753088,280,-2.148929872434501
141,0.02454444444444444444444444445,282,-2.112828472071663
142,0.02489382716049382716049382717,284,3.115354110564751
143,0.02524567901234567901234567902,286,2.106156960354872
144,0.0256,288,0.8788708445382467
145,0.02595679012345679012345679012,290,2.1131835933934657
146,0.02631604938271604938271604938,292,-1.1661897494503883
147,0.02667777777777777777777777777,294,0.18085268328901571
148,0.02704197530864197530864197529,296,0.31923330383131293
149,0.02740864197530864197530864199,298,0.21186405325836932
150,0.02777777777777777777777777779,300,0.21082820296773808
151,0.02814938271604938271604938272,302,-0.24944878545060434
152,0.02852345679012345679012345679,304,0.46414103832649267
153,0.0289,306,-1.2909172161461433
154,0.02927901234567901234567901234,308,0.1105337730466535
155,0.02966049382716049382716049382,310,-2.5557570438885437
156,0.03004444444444444444444444443,312,3.2687545807811085
157,0.03043086419753086419753086418,314,0.043901701734095584
158,0.03081975308641975308641975310,316,2.1470806066249613
159,0.03121111111111111111111111112,318,4.708852225727957
160,0.03160493827160493827160493828,320,-2.9561014541398913
161,0.03200123456790123456790123457,322,-1.205173674879826
162,0.0324,324,2.305149362393353
163,0.03280123456790123456790123456,326,-5.488551121498729
164,0.03320493827160493827160493826,328,0.4101939170936014
165,0.03361111111111111111111111110,330,2.2736263106279733
166,0.03401975308641975308641975307,332,-0.9243867088620268
167,0.03443086419753086419753086421,334,0.4854749276556879
168,0.03484444444444444444444444446,336,1.9077053670907453
169,0.03526049382716049382716049384,338,1.8602125350342615
170,0.03567901234567901234567901235,340,-1.5629528919298088
171,0.0361,342,2.315800059515054
172,0.03652345679012345679012345679,344,-0.4053839747236233
173,0.03694938271604938271604938271,346,0.33131496451849773
174,0.03737777777777777777777777776,348,-1.7807318806661538
175,0.03780864197530864197530864196,350,-3.251774037816085
176,0.03824197530864197530864197533,352,-0.6842757490250637
177,0.03867777777777777777777777779,354,-2.5638055710068217
178,0.03911604938271604938271604939,356,0.6235544768432713
179,0.03955679012345679012345679013,358,-2.6384215433820413
180,0.04,360,2.2736263106279755
181,0.04044567901234567901234567901,362,-1.8583354763634998
182,0.04089382716049382716049382715,364,-1.0747549451645644
183,0.04134444444444444444444444443,366,-0.48254781368667904
184,0.04179753086419753086419753085,368,-0.6508084353683009
185,0.04225308641975308641975308644,370,2.1909335947828645
186,0.04271111111111111111111111112,372,1.4379961814829738
187,0.04317160493827160493827160495,374,2.2037034316542554
188,0.04363456790123456790123456791,376,0.08575301029420435
189,0.0441,378,0.3916530592078354
190,0.04456790123456790123456790123,380,-3.520657037285186
191,0.04503827160493827160493827160,382,-3.5100921760466104
192,0.04551111111111111111111111110,384,0.16402247406123643
193,0.04598641975308641975308641973,386,2.782319611071129
194,0.04646419753086419753086419755,388,3.179653873290636
195,0.04694444444444444444444444446,390,-0.45641926588854553
196,0.04742716049382716049382716050,392,1.4146612329395152
197,0.04791234567901234567901234568,394,-0.7732981712045799
198,0.0484,396,0.2892426523235375
199,0.04889012345679012345679012345,398,0.529092033422469
200,0.04938271604938271604938271604,400,-0.4958362013410835
201,0.04987777777777777777777777776,402,-1.5326764704154157
202,0.05037530864197530864197530862,404,1.722277463810833
203,0.05087530864197530864197530866,406,-1.0160372712534225
204,0.05137777777777777777777777779,408,0.4703741222972953
205,0.05188271604938271604938271606,410,-0.0016477824658822381
206,0.05239012345679012345679012346,412,0.22219579370434003
207,0.0529,414,1.6010706775769548
208,0.05341234567901234567901234567,416,-0.3599824801380321
209,0.05392716049382716049382716048,418,-0.08338730880230263
210,0.05444444444444444444444444443,420,-1.3344434136941334
211,0.05496419753086419753086419751,422,1.4616297562863738
212,0.05548641975308641975308641977,424,1.711592627434188
213,0.05601111111111111111111111113,426,-4.080232297173461
214,0.05653827160493827160493827162,428,-1.8862934169189995
215,0.05706790123456790123456790124,430,-1.2545876140879466
216,0.0576,432,-3.8672143744766365
217,0.05813456790123456790123456790,434,2.3794829759167606
218,0.05867160493827160493827160493,436,-0.2880397505077489
219,0.05921111111111111111111111109,438,1.5489914183407856
220,0.05975308641975308641975308640,440,-0.15648557456641382
221,0.06029753086419753086419753089,442,-3.5540957866089107
222,0.06084444444444444444444444446,444,-0.29011736401863314
223,0.06139382716049382716049382717,446,4.224855570604029
224,0.06194567901234567901234567902,448,0.5072017470045553
225,0.0625,450,-2.576909179513831
226,0.06305679012345679012345679012,452,-0.9933800005358373
227,0.06361604938271604938271604937,454,1.8448359400918912
228,0.06417777777777777777777777776,456,3.5623550833311146
229,0.06474197530864197530864197529,458,4.8047218701741485
230,0.06530864197530864197530864200,460,0.6460615691927046
231,0.06587777777777777777777777779,462,4.640138604034524
232,0.06644938271604938271604938273,464,0.33438497853570076
233,0.06702345679012345679012345680,466,-1.8324225571192319
234,0.0676,468,3.4899710282686365
235,0.06817901234567901234567901234,470,-2.206261368374505
236,0.06876049382716049382716049382,472,1.0025167572376865
237,0.06934444444444444444444444443,474,0.35603327162931253
238,0.06993086419753086419753086417,476,-0.9275351250540785
239,0.07051975308641975308641975311,478,-1.8205022180082397
240,0.07111111111111111111111111113,480,0.8155746182208274
241,0.07170493827160493827160493828,482,-3.066468043300948
242,0.07230123456790123456790123457,484,1.0254286680189924
243,0.0729,486,-5.719080031353977
244,0.07350123456790123456790123456,488,2.1262165431741487
245,0.07410493827160493827160493826,490,-2.50144145325952
246,0.07471111111111111111111111109,492,-2.854680716934657
247,0.07531975308641975308641975306,494,-4.367188453721308
248,0.07593086419753086419753086422,496,-1.9169150669230306
249,0.07654444444444444444444444446,498,-0.9319468910425134
250,0.07716049382716049382716049384,500,-3.0019355477172525
251,0.07777901234567901234567901235,502,0.2756894102983943
252,0.0784,504,2.280209461717225
253,0.07902345679012345679012345678,506,0.6586858379640196
254,0.07964938271604938271604938270,508,1.8882960042094656
255,0.08027777777777777777777777776,510,-2.477186210915477
256,0.08090864197530864197530864195,512,0.7364745890260663
257,0.08154197530864197530864197533,514,1.6635532778468805
258,0.08217777777777777777777777780,516,1.3706518971198656
259,0.08281604938271604938271604940,518,-0.3999130997116136
260,0.08345679012345679012345679013,520,-4.184337663993435
261,0.0841,522,0.07224090105803056
262,0.08474567901234567901234567901,524,-0.6423220279134466
263,0.08539382716049382716049382715,526,0.04745549089650222
264,0.08604444444444444444444444442,528,2.494971394773712
265,0.08669753086419753086419753084,530,-2.242485301941781
266,0.08735308641975308641975308645,532,2.65734227835464
267,0.08801111111111111111111111113,534,1.7462383613014236
268,0.08867160493827160493827160495,536,3.7885081145531383
269,0.08933456790123456790123456791,538,-3.0515874690149523
270,0.09,540,-2.7145103837920908
271,0.09066790123456790123456790123,542,1.821832491833737
272,0.09133827160493827160493827159,544,-4.005708658753531
273,0.09201111111111111111111111109,546,-4.824964895578383
274,0.09268641975308641975308641973,548,-4.076261064571894
275,0.09336419753086419753086419756,550,0.2817261663980869
276,0.09404444444444444444444444446,552,2.5313175897354956
277,0.09472716049382716049382716051,554,1.0556475246049732
278,0.09541234567901234567901234569,556,-1.4339198059909852
279,0.0961,558,3.607863552151414
280,0.09679012345679012345679012345,560,1.262457783110706
281,0.09748271604938271604938271604,562,-1.9903370786428112
282,0.09817777777777777777777777776,564,1.1946487482228771
283,0.09887530864197530864197530861,566,-0.405264719508198
284,0.09957530864197530864197530867,568,3.0571370905213433
285,0.1002777777777777777777777778,570,-3.323397958604638
286,0.1009827160493827160493827161,572,-1.8227751255823141
287,0.1016901234567901234567901235,574,0.2242348949026921
288,0.1024,576,3.718832253389385
289,0.1031123456790123456790123457,578,-1.5312525321110644
290,0.1038271604938271604938271605,580,-1.245432270803994
291,0.1045444444444444444444444444,582,0.23921383891691042
292,0.1052641975308641975308641975,584,-5.049252094322411
293,0.1059864197530864197530864198,586,-3.3511230113872426
294,0.1067111111111111111111111111,588,-0.858289445236697
295,0.1074382716049382716049382716,590,1.661509820636454
296,0.1081679012345679012345679012,592,0.5629206880841924
297,0.1089,594,-1.6531558384087335
298,0.1096345679012345679012345679,596,0.21885216253929618
299,0.1103716049382716049382716049,598,1.6478811597200582
300,0.1111111111111111111111111111,600,1.8332824663125546
301,0.1118530864197530864197530864,602,-0.0067142270930990655
302,0.1125975308641975308641975309,604,-1.8281379805897706
303,0.1133444444444444444444444445,606,2.2240081923104227
304,0.1140938271604938271604938272,608,0.29918324916970795
305,0.1148456790123456790123456790,610,0.0743370990040927
306,0.1156,612,1.309980105056329
307,0.1163567901234567901234567901,614,1.575761773616676
308,0.1171160493827160493827160494,616,3.763023871174197
309,0.1178777777777777777777777778,618,-2.1083000346356107
310,0.1186419753086419753086419753,620,0.08186461001865179
311,0.1194086419753086419753086420,622,0.9291368492926457
312,0.1201777777777777777777777778,624,-4.851040161660629
313,0.1209493827160493827160493827,626,-2.452857891035812
314,0.1217234567901234567901234568,628,1.7979304425782503
315,0.1225,630,1.1616487206341255
316,0.1232790123456790123456790123,632,-1.1785127797625279
317,0.1240604938271604938271604938,634,0.9518400391872675
318,0.1248444444444444444444444444,636,-1.829512795556142
319,0.1256308641975308641975308642,638,-1.7778217275429085
320,0.1264197530864197530864197531,640,2.396039213141752
321,0.1272111111111111111111111111,642,2.0612158201997315
322,0.1280049382716049382716049383,644,1.5469676147898335
323,0.1288012345679012345679012346,646,1.8071125510895125
324,0.1296,648,-3.7370703859582854
325,0.1304012345679012345679012346,650,-0.34548270058822866
326,0.1312049382716049382716049383,652,-0.5189842661241815
327,0.1320111111111111111111111111,654,-0.7098642585983204
328,0.1328197530864197530864197531,656,-1.3091752060476995
329,0.1336308641975308641975308642,658,-2.2988626015955465
330,0.1344444444444444444444444445,660,1.2716157681723845
331,0.1352604938271604938271604938,662,-0.09775062977108076
332,0.1360790123456790123456790124,664,-0.42057570376811043
333,0.1369,666,1.9651301535147416
334,0.1377234567901234567901234568,668,1.4070489339725987
335,0.1385493827160493827160493827,670,4.1022096265970855
336,0.1393777777777777777777777778,672,-1.0406639530088868
337,0.1402086419753086419753086419,674,-0.2589099897085437
338,0.1410419753086419753086419753,676,-0.6276205404719287
339,0.1418777777777777777777777778,678,-0.18694009662312938
340,0.1427160493827160493827160494,680,1.4579787383588148
341,0.1435567901234567901234567901,682,-3.940254491775027
342,0.1444,684,-0.6086041577228893
343,0.1452456790123456790123456790,686,0.24606865923169233
344,0.1460938271604938271604938271,688,0.13719678147292494
345,0.1469444444444444444444444444,690,1.4700549401046867
346,0.1477975308641975308641975308,692,0.4874297298449038
347,0.1486530864197530864197530865,694,-1.2438816342121726
348,0.1495111111111111111111111111,696,1.392846869873677
349,0.1503716049382716049382716050,698,1.5656584825058288
350,0.1512345679012345679012345679,700,1.135678207665675
351,0.1521,702,-1.8161857826393801
352,0.1529679012345679012345679012,704,0.9366051650432435
353,0.1538382716049382716049382716,706,0.5501122610352234
