,Mass (amu),Time (microseconds),Amplitude
0,0,0,2.4731503115780886
1,0.000001234567901234567901234567901,2,-2.6023814189759413
2,0.000004938271604938271604938271604,4,-4.105117759602048
3,0.00001111111111111111111111111111,6,-0.40168976649467153
4,0.00001975308641975308641975308642,8,-1.6381431590896802
5,0.00003086419753086419753086419754,10,0.9568199152739231
6,0.00004444444444444444444444444445,12,2.0900780552467784
7,0.00006049382716049382716049382716,14,-2.6258636851557706
8,0.00007901234567901234567901234568,16,2.7602897163064832
9,0.0001,18,2.337526975343247
10,0.0001234567901234567901234567901,20,-1.4886084337401047
11,0.0001493827160493827160493827160,22,1.6799235319590238
12,0.0001777777777777777777777777777,24,-0.7138100006718754
13,0.0002086419753086419753086419752,26,-2.4727341526491857
14,0.0002419753086419753086419753088,28,0.5459325119952868
15,0.0002777777777777777777777777779,30,-4.130428644275498
16,0.0003160493827160493827160493828,32,5.183394672367925
17,0.0003567901234567901234567901235,34,1.272589070140124
18,0.0004,36,-1.2317793303956295
19,0.0004456790123456790123456790123,38,-0.6482753679530184
20,0.0004938271604938271604938271604,40,-1.304205286047846
21,0.0005444444444444444444444444443,42,-1.7973472398486565
22,0.0005975308641975308641975308640,44,-1.5458839553880293
23,0.0006530864197530864197530864200,46,1.5551744437280721
24,0.0007111111111111111111111111113,48,-4.505831335394334
25,0.0007716049382716049382716049384,50,2.1198439564128875
26,0.0008345679012345679012345679013,52,0.7497505491045336
27,0.0009,54,-0.951634758778293
28,0.0009679012345679012345679012345,56,0.6380622815264858
29,0.001038271604938271604938271605,58,2.289619100679322
30,0.001111111111111111111111111111,60,0.9250912552738452
31,0.001186419753086419753086419753,62,5.668199765642832
32,0.001264197530864197530864197531,64,-3.7134854020745953
33,0.001344444444444444444444444445,66,-0.040404880149913634
34,0.001427160493827160493827160494,68,1.159173335724425
35,0.001512345679012345679012345679,70,-0.798319227032728
36,0.0016,72,-0.30147396784147185
37,0.001690123456790123456790123457,74,-1.789645026665389
38,0.001782716049382716049382716049,76,1.877484549573755
39,0.001877777777777777777777777777,78,-0.25605553980315904
40,0.001975308641975308641975308642,80,0.6364845854673813
41,0.002075308641975308641975308642,82,-1.4295732981314617
42,0.002177777777777777777777777778,84,2.59250129322875
43,0.002282716049382716049382716050,86,-0.218048298820286
44,0.002390123456790123456790123457,88,0.05141920744208133
45,0.0025,90,-4.172910485821324
46,0.002612345679012345679012345679,92,2.6019395084317583
47,0.002727160493827160493827160494,94,3.1612216938158215
48,0.002844444444444444444444444444,96,-0.5280410452816822
49,0.002964197530864197530864197530,98,-0.18767526718877578
50,0.003086419753086419753086419754,100,-4.127972227501304
51,0.003211111111111111111111111111,102,-6.417873479362247
52,0.003338271604938271604938271605,104,-1.7845768943280045
53,0.003467901234567901234567901235,106,0.28703157697969106
54,0.0036,108,1.4320289734179734
55,0.003734567901234567901234567901,110,1.0031153697615223
56,0.003871604938271604938271604938,112,0.1901090520778377
57,0.004011111111111111111111111111,114,1.4834863274171592
58,0.004153086419753086419753086419,116,-4.33444036576093
59,0.004297530864197530864197530865,118,-4.447615829394289
60,0.004444444444444444444444444445,120,-0.3792436311415555
61,0.004593827160493827160493827161,122,1.687520334893281
62,0.004745679012345679012345679012,124,2.9279266958850254
63,0.0049,126,1.5374473949971967
64,0.005056790123456790123456790123,128,3.5484180211153165
65,0.005216049382716049382716049382,130,1.736413605288441
66,0.005377777777777777777777777777,132,-0.966683447910973
67,0.005541975308641975308641975308,134,-0.682190621238555
68,0.005708641975308641975308641976,136,-2.1563756109738756
69,0.005877777777777777777777777778,138,-0.9262847953472921
70,0.006049382716049382716049382716,140,-0.9618135705134602
71,0.006223456790123456790123456790,142,2.1512934726251647
72,0.0064,144,2.7511149487371624
73,0.006579012345679012345679012345,146,0.827577705690467
74,0.006760493827160493827160493827,148,-3.8780027564716213
75,0.006944444444444444444444444444,150,5.920040778696713
76,0.007130864197530864197530864197,152,-2.9755618471950904
77,0.007319753086419753086419753087,154,-1.5977761439259002
78,0.007511111111111111111111111112,156,6.513025497571211
79,0.007704938271604938271604938272,158,-0.2914890856440519
80,0.007901234567901234567901234568,160,-2.6930191462100432
81,0.0081,162,-2.514984563349661
82,0.008301234567901234567901234568,164,1.810354414205858
83,0.008504938271604938271604938271,166,-1.2352291349866464
84,0.008711111111111111111111111110,168,-0.6168655155612603
85,0.008919753086419753086419753086,170,0.12232953193362167
86,0.009130864197530864197530864198,172,-2.896111408002041
87,0.009344444444444444444444444445,174,-2.679238704955057
88,0.009560493827160493827160493828,176,-0.8223755037306194
89,0.009779012345679012345679012346,178,0.1828269712648365
90,0.01,180,-0.0432858714314989
91,0.01022345679012345679012345679,182,-1.4434194425840299
92,0.01044938271604938271604938271,184,1.575936475506863
93,0.01067777777777777777777777777,186,-2.9747141402139063
94,0.01090864197530864197530864197,188,4.808947567175323
95,0.01114197530864197530864197532,190,-1.818542827427485
96,0.01137777777777777777777777778,192,1.0363264825808463
97,0.01161604938271604938271604939,194,1.6347356304387217
98,0.01185679012345679012345679013,196,0.7859876383987916
99,0.0121,198,-4.162283770749928
100,0.01234567901234567901234567901,200,-1.6238685207825039
101,0.01259382716049382716049382716,202,3.716287262318429
102,0.01284444444444444444444444444,204,-0.4728011732231605
103,0.01309753086419753086419753085,206,-0.4156530975252157
104,0.01335308641975308641975308643,208,5.707610506327095
105,0.01361111111111111111111111112,210,-0.07746789356055693
106,0.01387160493827160493827160494,212,1.1609377679749595
107,0.01413456790123456790123456790,214,1.7336295493824223
108,0.0144,216,-2.999217885565215
109,0.01466790123456790123456790123,218,2.12178388152126
110,0.01493827160493827160493827160,220,1.7943144738115133
111,0.01521111111111111111111111110,222,0.9419308765689736
112,0.01548641975308641975308641974,224,-1.4748612124162248
113,0.01576419753086419753086419754,226,2.928898490836062
114,0.01604444444444444444444444445,228,4.616251911382543
115,0.01632716049382716049382716050,230,-1.008456722440114
116,0.01661234567901234567901234568,232,-0.13536551948765085
117,0.0169,234,1.1948196045759212
118,0.01719012345679012345679012345,236,0.5329766087080164
119,0.01748271604938271604938271604,238,2.1550219928238628
120,0.01777777777777777777777777777,240,4.137154942230206
121,0.01807530864197530864197530863,242,-4.928630897580221
122,0.01837530864197530864197530865,244,0.5216784102325636
123,0.01867777777777777777777777779,246,-3.0110177981377615
124,0.01898271604938271604938271606,248,-1.6001295359525347
125,0.01929012345679012345679012346,250,1.2047183880795105
126,0.0196,252,0.48436497665603656
127,0.01991234567901234567901234568,254,0.6025321040908189
128,0.02022716049382716049382716049,256,0.5797758365317517
129,0.02054444444444444444444444443,258,5.640467219065997
130,0.02086419753086419753086419752,260,-3.6960349562335204
131,0.02118641975308641975308641977,262,-1.3831070472441507
132,0.02151111111111111111111111112,264,-1.1843769799840385
133,0.02183827160493827160493827161,266,1.1773668707792408
134,0.02216790123456790123456790124,268,2.284485177187295
135,0.0225,270,-0.5901109144005489
136,0.02283456790123456790123456790,272,1.3459879704875142
137,0.02317160493827160493827160493,274,-0.3859120173265157
138,0.02351111111111111111111111110,276,-1.988797312462311
139,0.02385308641975308641975308641,278,1.6966585659690496
140,0.02419753086419753086419753088,280,4.7864382169939965
141,0.02454444444444444444444444445,282,-1.2942842342868945
142,0.02489382716049382716049382717,284,-5.052935368953018
143,0.02524567901234567901234567902,286,-1.2615625846440441
144,0.0256,288,1.2159839112404855
145,0.02595679012345679012345679012,290,3.626320362435202
146,0.02631604938271604938271604938,292,1.810223470375119
147,0.02667777777777777777777777777,294,1.3616654648164666
148,0.02704197530864197530864197529,296,-3.8343972021727852
149,0.02740864197530864197530864199,298,-2.364534700930406
150,0.02777777777777777777777777779,300,-0.024346403427842025
151,0.02814938271604938271604938272,302,-0.8914316248822386
152,0.02852345679012345679012345679,304,0.08224584187903387
153,0.0289,306,3.8863843530858433
154,0.02927901234567901234567901234,308,1.6207339089967845
155,0.02966049382716049382716049382,310,-0.1326026928488175
156,0.03004444444444444444444444443,312,-3.4774307361973156
157,0.03043086419753086419753086418,314,2.476132625413881
158,0.03081975308641975308641975310,316,-1.5366590038882029
159,0.03121111111111111111111111112,318,2.8427270981750556
160,0.03160493827160493827160493828,320,-1.900558544974157
161,0.03200123456790123456790123457,322,2.4984167319454187
162,0.0324,324,-0.21458279164995248
163,0.03280123456790123456790123456,326,0.7279464571566963
164,0.03320493827160493827160493826,328,2.5107145008613143
165,0.03361111111111111111111111110,330,-3.5240890306987276
166,0.03401975308641975308641975307,332,2.2932449294185755
167,0.03443086419753086419753086421,334,5.194712982974631
168,0.03484444444444444444444444446,336,-2.348489752578136
169,0.03526049382716049382716049384,338,-2.3025819172341984
170,0.03567901234567901234567901235,340,2.4724524751175023
171,0.0361,342,-2.2822855297701645
172,0.03652345679012345679012345679,344,-1.8236347176477345
173,0.03694938271604938271604938271,346,2.7527681507491635
174,0.03737777777777777777777777776,348,2.822750510576893
175,0.03780864197530864197530864196,350,1.230739462819834
176,0.03824197530864197530864197533,352,-0.5744807264133609
177,0.03867777777777777777777777779,354,-2.646467751754749
178,0.03911604938271604938271604939,356,-1.182400786832435
179,0.03955679012345679012345679013,358,-0.14220653104452674
180,0.04,360,-0.9377782806125928
181,0.04044567901234567901234567901,362,-1.325157446234527
182,0.04089382716049382716049382715,364,-0.2510936286380888
183,0.04134444444444444444444444443,366,0.34877422485258924
184,0.04179753086419753086419753085,368,3.049226507576047
185,0.04225308641975308641975308644,370,1.7953043262503867
186,0.04271111111111111111111111112,372,0.7257263592409593
187,0.04317160493827160493827160495,374,2.709667332523603
188,0.04363456790123456790123456791,376,-3.1033774880027925
189,0.0441,378,-3.0335562167904366
190,0.04456790123456790123456790123,380,-3.9269146090585423
191,0.04503827160493827160493827160,382,0.5026489320998884
192,0.04551111111111111111111111110,384,-0.6262961479709505
193,0.04598641975308641975308641973,386,-4.509106944699347
194,0.04646419753086419753086419755,388,-4.03080202804009
195,0.04694444444444444444444444446,390,-1.727262816392206
196,0.04742716049382716049382716050,392,2.8984677257733877
197,0.04791234567901234567901234568,394,-3.0299904104083075
198,0.0484,396,-1.525486416462391
199,0.04889012345679012345679012345,398,-0.4787626892371962
200,0.04938271604938271604938271604,400,2.057753484165716
201,0.04987777777777777777777777776,402,-3.3151246264133607
202,0.05037530864197530864197530862,404,-1.1951648893222397
203,0.05087530864197530864197530866,406,-0.18891337192974766
204,0.05137777777777777777777777779,408,-0.03716679717213134
205,0.05188271604938271604938271606,410,-0.7836891113363577
206,0.05239012345679012345679012346,412,-3.113834800347256
207,0.0529,414,-3.2147525549369833
208,0.05341234567901234567901234567,416,-4.207347790073238
209,0.05392716049382716049382716048,418,-0.18396655624131925
210,0.05444444444444444444444444443,420,0.5096733340086413
211,0.05496419753086419753086419751,422,-1.1912531844793408
212,0.05548641975308641975308641977,424,0.4412086896644405
213,0.05601111111111111111111111113,426,2.0823709481570414
214,0.05653827160493827160493827162,428,-2.823361318365583
215,0.05706790123456790123456790124,430,3.867877790325725
216,0.0576,432,1.3120184926422132
217,0.05813456790123456790123456790,434,0.3817277456726076
218,0.05867160493827160493827160493,436,-0.9773106726149302
219,0.05921111111111111111111111109,438,3.3656222475948443
220,0.05975308641975308641975308640,440,-1.1261316765478309
221,0.06029753086419753086419753089,442,5.372586537715663
222,0.06084444444444444444444444446,444,1.2564172737872519
223,0.06139382716049382716049382717,446,0.6807684371517062
224,0.06194567901234567901234567902,448,1.0440311997479672
225,0.0625,450,-0.7751646669447477
226,0.06305679012345679012345679012,452,1.9549591935841109
227,0.06361604938271604938271604937,454,-0.6326936023597546
228,0.06417777777777777777777777776,456,-1.1501233296143232
229,0.06474197530864197530864197529,458,-2.457275198067713
230,0.06530864197530864197530864200,460,-1.5411763634030953
231,0.06587777777777777777777777779,462,-1.9691630439304049
232,0.06644938271604938271604938273,464,-1.8746587028470703
233,0.06702345679012345679012345680,466,2.1028635212982825
234,0.0676,468,4.236835003091619
235,0.06817901234567901234567901234,470,0.08000282480431531
236,0.06876049382716049382716049382,472,2.7766698407797255
237,0.06934444444444444444444444443,474,2.005630964370486
238,0.06993086419753086419753086417,476,1.1580209113430553
239,0.07051975308641975308641975311,478,0.22488516307940692
240,0.07111111111111111111111111113,480,-2.0793026919994113
241,0.07170493827160493827160493828,482,2.465051879097535
242,0.07230123456790123456790123457,484,4.121185776246044
243,0.0729,486,-4.022853771724048
244,0.07350123456790123456790123456,488,1.899837121347987
245,0.07410493827160493827160493826,490,1.2331007675113708
246,0.07471111111111111111111111109,492,4.19645120220021
247,0.07531975308641975308641975306,494,-0.7762282643339659
248,0.07593086419753086419753086422,496,2.8829896748077877
249,0.07654444444444444444444444446,498,-2.0208919713975684
250,0.07716049382716049382716049384,500,-1.7954546734301493
251,0.07777901234567901234567901235,502,4.320400661992318
252,0.0784,504,-5.520456969582416
253,0.07902345679012345679012345678,506,-0.6281299142563562
254,0.07964938271604938271604938270,508,-1.3474736500912727
255,0.08027777777777777777777777776,510,1.9034466359086188
256,0.08090864197530864197530864195,512,-0.10467101557497481
257,0.08154197530864197530864197533,514,0.5619815664010362
258,0.08217777777777777777777777780,516,-2.4463233871045014
259,0.08281604938271604938271604940,518,2.3070454254177775
260,0.08345679012345679012345679013,520,-1.6318935303041373
261,0.0841,522,-0.09767613618884603
262,0.08474567901234567901234567901,524,1.3526839056139346
263,0.08539382716049382716049382715,526,-2.3943058438766966
264,0.08604444444444444444444444442,528,-5.06600765312211
265,0.08669753086419753086419753084,530,0.8431229360547853
266,0.08735308641975308641975308645,532,0.2433118275882352
267,0.08801111111111111111111111113,534,-0.4327087425225269
268,0.08867160493827160493827160495,536,3.2207310963087568
269,0.08933456790123456790123456791,538,-1.7489501635105162
270,0.09,540,-1.1112002911290961
271,0.09066790123456790123456790123,542,0.6050459362816039
272,0.09133827160493827160493827159,544,-3.4107477111040114
273,0.09201111111111111111111111109,546,1.4302937333545815
274,0.09268641975308641975308641973,548,1.4469095122850066
275,0.09336419753086419753086419756,550,0.6874710360905386
276,0.09404444444444444444444444446,552,-4.597300187914124
277,0.09472716049382716049382716051,554,0.20930554116208802
278,0.09541234567901234567901234569,556,4.437035349316908
279,0.0961,558,0.5326015965002052
280,0.09679012345679012345679012345,560,-0.03195993110654705
281,0.09748271604938271604938271604,562,-2.4633270965711915
282,0.09817777777777777777777777776,564,-1.593807484336089
283,0.09887530864197530864197530861,566,-2.8209456234221997
284,0.09957530864197530864197530867,568,0.5739211618658894
285,0.1002777777777777777777777778,570,2.841477361327365
286,0.1009827160493827160493827161,572,0.3970848391399686
287,0.1016901234567901234567901235,574,3.7558713756217488
288,0.1024,576,2.295434035937586
289,0.1031123456790123456790123457,578,1.6864801639949412
290,0.1038271604938271604938271605,580,1.996746762144292
291,0.1045444444444444444444444444,582,2.8894447504155463
292,0.1052641975308641975308641975,584,1.1770761279936812
293,0.1059864197530864197530864198,586,-0.34271044215862306
294,0.1067111111111111111111111111,588,-1.6238723157041428
295,0.1074382716049382716049382716,590,0.35426976334305316
296,0.1081679012345679012345679012,592,1.7519953803166926
297,0.1089,594,1.1332897583828858
298,0.1096345679012345679012345679,596,-2.345238423062996
299,0.1103716049382716049382716049,598,3.748097452267414
300,0.1111111111111111111111111111,600,-0.6777753756050943
301,0.1118530864197530864197530864,602,3.810208886648412
302,0.1125975308641975308641975309,604,-2.9467289624486077
303,0.1133444444444444444444444445,606,1.6014999870240125
304,0.1140938271604938271604938272,608,3.6051209050216872
305,0.1148456790123456790123456790,610,-0.10738442937406945
306,0.1156,612,1.0059744237420671
307,0.1163567901234567901234567901,614,-0.4080853831943968
308,0.1171160493827160493827160494,616,-2.093426704137662
309,0.1178777777777777777777777778,618,-0.03734180680808945
310,0.1186419753086419753086419753,620,2.176829841725395
311,0.1194086419753086419753086420,622,0.4494926504374158
312,0.1201777777777777777777777778,624,-0.6750390317643872
313,0.1209493827160493827160493827,626,3.0015317143870015
314,0.1217234567901234567901234568,628,3.672981661495213
315,0.1225,630,-1.1546492274604507
316,0.1232790123456790123456790123,632,-1.075623999366158
317,0.1240604938271604938271604938,634,-0.5240109915548131
318,0.1248444444444444444444444444,636,3.0644359130585848
319,0.1256308641975308641975308642,638,-0.8728691071014086
320,0.1264197530864197530864197531,640,3.365516994162813
321,0.1272111111111111111111111111,642,0.3484411007136211
322,0.1280049382716049382716049383,644,1.377381373277293
323,0.1288012345679012345679012346,646,1.3935082967479953
324,0.1296,648,-4.991955747841943
325,0.1304012345679012345679012346,650,0.13040339604504353
326,0.1312049382716049382716049383,652,-0.21280115950002448
327,0.1320111111111111111111111111,654,-1.6536719803565927
328,0.1328197530864197530864197531,656,0.6741000139951022
329,0.1336308641975308641975308642,658,0.8247023142214255
330,0.1344444444444444444444444445,660,-1.974519702382688
331,0.1352604938271604938271604938,662,2.7028689985786016
332,0.1360790123456790123456790124,664,-2.6743016988558588
333,0.1369,666,2.779307377307713
334,0.1377234567901234567901234568,668,-1.9381955546942744
335,0.1385493827160493827160493827,670,1.4834720363680494
336,0.1393777777777777777777777778,672,1.9706335503832773
337,0.1402086419753086419753086419,674,-0.48561066902363065
338,0.1410419753086419753086419753,676,0.3267479165264547
339,0.1418777777777777777777777778,678,-6.109554391749831
340,0.1427160493827160493827160494,680,0.7643049110677238
341,0.1435567901234567901234567901,682,-2.172779367378845
342,0.1444,684,1.9396878003412825
343,0.1452456790123456790123456790,686,0.16295503283689136
344,0.1460938271604938271604938271,688,1.2474183221748487
345,0.1469444444444444444444444444,690,0.823990835843588
346,0.1477975308641975308641975308,692,-2.9824511541991527
347,0.1486530864197530864197530865,694,-0.47908588031753996
348,0.1495111111111111111111111111,696,0.8496325556314049
349,0.1503716049382716049382716050,698,2.9165930905833606
350,0.1512345679012345679012345679,700,-0.545362114846167
351,0.1521,702,0.773116851084589
352,0.1529679012345679012345679012,704,-0.7569965696770332
353,0.1538382716049382716049382716,706,-0.8165766956832686
354,0.1547111111111111111111111111,708,0.8529048116392526
