,Mass (amu),Time (microseconds),Amplitude
0,0,0,0.169004968271788
1,0.000001234567901234567901234567901,2,1.5483183198296506
2,0.000004938271604938271604938271604,4,1.0521527902341423
3,0.00001111111111111111111111111111,6,-0.31666106116199116
4,0.00001975308641975308641975308642,8,-0.4520878295819328
5,0.00003086419753086419753086419754,10,-2.340511498133208
6,0.00004444444444444444444444444445,12,-0.33980214419282995
7,0.00006049382716049382716049382716,14,-1.4067296865139942
8,0.00007901234567901234567901234568,16,-1.0350840348186414
9,0.0001,18,-2.863011182439928
10,0.0001234567901234567901234567901,20,-1.0002029917406863
11,0.0001493827160493827160493827160,22,1.1735185094408536
12,0.0001777777777777777777777777777,24,0.5347600005281581
13,0.0002086419753086419753086419752,26,1.3019942811151575
14,0.0002419753086419753086419753088,28,1.9213155147987342
15,0.0002777777777777777777777777779,30,-2.560512121808546
16,0.0003160493827160493827160493828,32,0.04796463735725128
17,0.0003567901234567901234567901235,34,0.5967459246784188
18,0.0004,36,1.4164403361579856
19,0.0004456790123456790123456790123,38,-1.2948660906635827
20,0.0004938271604938271604938271604,40,-0.7973114747042314
21,0.0005444444444444444444444444443,42,-1.6237784613520723
22,0.0005975308641975308641975308640,44,2.6673659882394327
23,0.0006530864197530864197530864200,46,2.040700107574749
24,0.0007111111111111111111111111113,48,2.0853244636659056
25,0.0007716049382716049382716049384,50,-0.8781051189699954
26,0.0008345679012345679012345679013,52,0.4488125968853072
27,0.0009,54,-3.9249804123171446
28,0.0009679012345679012345679012345,56,0.38592896972879603
29,0.001038271604938271604938271605,58,-0.21754067609836694
30,0.001111111111111111111111111111,60,1.2553393643177633
31,0.001186419753086419753086419753,62,2.522126367420746
32,0.001264197530864197530864197531,64,1.0224755267157077
33,0.001344444444444444444444444445,66,-1.3829985755468972
34,0.001427160493827160493827160494,68,1.0050924942923631
35,0.001512345679012345679012345679,70,0.5115836187424796
36,0.0016,72,-3.865840651152449
37,0.001690123456790123456790123457,74,-2.2520573056604705
38,0.001782716049382716049382716049,76,1.7992547017612635
39,0.001877777777777777777777777777,78,1.8650750357621841
40,0.001975308641975308641975308642,80,2.988250785847882
41,0.002075308641975308641975308642,82,-1.0298063019655517
42,0.002177777777777777777777777778,84,0.39807416827440034
43,0.002282716049382716049382716050,86,-0.3719064931276093
44,0.002390123456790123456790123457,88,-2.33470188864268
45,0.0025,90,-5.913813815721689
46,0.002612345679012345679012345679,92,0.6763333281432659
47,0.002727160493827160493827160494,94,-4.0223544382286285
48,0.002844444444444444444444444444,96,2.923263806901421
49,0.002964197530864197530864197530,98,2.858053249808821
50,0.003086419753086419753086419754,100,3.1773630164477997
51,0.003211111111111111111111111111,102,-2.2766431954573987
52,0.003338271604938271604938271605,104,1.2649781878241104
53,0.003467901234567901234567901235,106,0.9494345806390143
54,0.0036,108,-3.6272397534370726
55,0.003734567901234567901234567901,110,0.8529746769608785
56,0.003871604938271604938271604938,112,1.6975028914298578
57,0.004011111111111111111111111111,114,1.4971144702646686
58,0.004153086419753086419753086419,116,1.722524949080046
59,0.004297530864197530864197530865,118,2.2531379441017245
60,0.004444444444444444444444444445,120,1.3630061656004768
61,0.004593827160493827160493827161,122,1.3586003727327132
62,0.004745679012345679012345679012,124,-0.02243662491068068
63,0.0049,126,0.5503528293770323
64,0.005056790123456790123456790123,128,-2.6093118430038125
65,0.005216049382716049382716049382,130,-0.693260401314509
66,0.005377777777777777777777777777,132,4.964617366558761
67,0.005541975308641975308641975308,134,0.7918239234317807
68,0.005708641975308641975308641976,136,-1.1445854814050602
69,0.005877777777777777777777777778,138,0.22682224981296084
70,0.006049382716049382716049382716,140,2.0569188169401658
71,0.006223456790123456790123456790,142,0.595626603049846
72,0.0064,144,-2.2269508023241236
73,0.006579012345679012345679012345,146,0.349334073623806
74,0.006760493827160493827160493827,148,-0.9241716753993771
75,0.006944444444444444444444444444,150,1.4573494028996037
76,0.007130864197530864197530864197,152,-0.6246180309386595
77,0.007319753086419753086419753087,154,-1.7225820366359241
78,0.007511111111111111111111111112,156,1.5133795906792415
79,0.007704938271604938271604938272,158,0.6365054778281534
80,0.007901234567901234567901234568,160,4.090977077127318
81,0.0081,162,0.5279162604566521
82,0.008301234567901234567901234568,164,4.316398065318072
83,0.008504938271604938271604938271,166,1.913404201257507
84,0.008711111111111111111111111110,168,-1.412274269751228
85,0.008919753086419753086419753086,170,-3.129730518404796
86,0.009130864197530864197530864198,172,-4.490428429741056
87,0.009344444444444444444444444445,174,4.788976692048928
88,0.009560493827160493827160493828,176,-1.7773232791981166
89,0.009779012345679012345679012346,178,0.708153949975128
90,0.01,180,0.7423336240003059
91,0.01022345679012345679012345679,182,1.9479508534915353
92,0.01044938271604938271604938271,184,2.8050821976493294
93,0.01067777777777777777777777777,186,1.698623607811833
94,0.01090864197530864197530864197,188,4.477474375972691
95,0.01114197530864197530864197532,190,2.081211867712476
96,0.01137777777777777777777777778,192,0.2476571178448932
97,0.01161604938271604938271604939,194,-0.5596138036385104
98,0.01185679012345679012345679013,196,-2.919673898139773
99,0.0121,198,-1.182323309116954
100,0.01234567901234567901234567901,200,-0.5451815075982502
101,0.01259382716049382716049382716,202,-4.294162148787732
102,0.01284444444444444444444444444,204,4.596097558234379
103,0.01309753086419753086419753085,206,2.2471041892848618
104,0.01335308641975308641975308643,208,-2.636456884768324
105,0.01361111111111111111111111112,210,-2.1641898561627535
106,0.01387160493827160493827160494,212,0.8673707936285523
107,0.01413456790123456790123456790,214,1.0974145299177287
108,0.0144,216,-1.1485350428669352
109,0.01466790123456790123456790123,218,0.6143525134715946
110,0.01493827160493827160493827160,220,5.455230476155703
111,0.01521111111111111111111111110,222,-1.0184000077277704
112,0.01548641975308641975308641974,224,4.069050034847178
113,0.01576419753086419753086419754,226,0.09537114468669307
114,0.01604444444444444444444444445,228,-1.597213242939788
115,0.01632716049382716049382716050,230,-2.360314318531657
116,0.01661234567901234567901234568,232,-0.7856375555005359
117,0.0169,234,2.8150308777372675
118,0.01719012345679012345679012345,236,-2.1079833211091823
119,0.01748271604938271604938271604,238,3.6014054962535
120,0.01777777777777777777777777777,240,-1.1106904020830242
121,0.01807530864197530864197530863,242,-0.5118654008492995
122,0.01837530864197530864197530865,244,0.0242697524746573
123,0.01867777777777777777777777779,246,-0.45515193999165177
124,0.01898271604938271604938271606,248,-0.4796134425208645
125,0.01929012345679012345679012346,250,-2.077045148794608
126,0.0196,252,3.750604267779853
127,0.01991234567901234567901234568,254,0.9438805160412607
128,0.02022716049382716049382716049,256,1.0883718261083168
129,0.02054444444444444444444444443,258,-0.7430513682021584
130,0.02086419753086419753086419752,260,2.607437723371904
131,0.02118641975308641975308641977,262,1.9287439847872927
132,0.02151111111111111111111111112,264,-1.3706176989405545
133,0.02183827160493827160493827161,266,-5.1057273904731995
134,0.02216790123456790123456790124,268,-0.8727226890107903
135,0.0225,270,1.2842699150407884
136,0.02283456790123456790123456790,272,-0.10621262470863974
137,0.02317160493827160493827160493,274,-4.092350518829474
138,0.02351111111111111111111111110,276,-2.2412685200550597
139,0.02385308641975308641975308641,278,-1.7809874872704659
140,0.02419753086419753086419753088,280,-0.538173646125209
141,0.02454444444444444444444444445,282,0.23613737066691468
142,0.02489382716049382716049382717,284,-1.8917428228529993
143,0.02524567901234567901234567902,286,-3.9086613365559577
144,0.0256,288,-2.4057130777320186
145,0.02595679012345679012345679012,290,-1.4941765281108381
146,0.02631604938271604938271604938,292,2.6336770262198015
147,0.02667777777777777777777777777,294,1.5320583817168172
148,0.02704197530864197530864197529,296,-2.608243773441105
149,0.02740864197530864197530864199,298,3.4367389790207645
150,0.02777777777777777777777777779,300,-1.1131902053281397
151,0.02814938271604938271604938272,302,0.9095036790242044
152,0.02852345679012345679012345679,304,0.025758899189711113
153,0.0289,306,0.4533918637149405
154,0.02927901234567901234567901234,308,-2.534150617415438
155,0.02966049382716049382716049382,310,1.4362534014433888
156,0.03004444444444444444444444443,312,-1.8233790109196093
157,0.03043086419753086419753086418,314,1.5644138562451693
158,0.03081975308641975308641975310,316,3.30491763733157
159,0.03121111111111111111111111112,318,-3.0695677491431
160,0.03160493827160493827160493828,320,0.28760412822036197
161,0.03200123456790123456790123457,322,-0.7338494714825827
162,0.0324,324,2.1865189245141554
163,0.03280123456790123456790123456,326,-2.5907745450380073
164,0.03320493827160493827160493826,328,-0.7814130929700019
165,0.03361111111111111111111111110,330,2.4047530708367715
166,0.03401975308641975308641975307,332,2.030399165757646
167,0.03443086419753086419753086421,334,-1.674923537528979
168,0.03484444444444444444444444446,336,-0.8056439151936867
169,0.03526049382716049382716049384,338,-0.939853665648883
170,0.03567901234567901234567901235,340,2.426657705250294
171,0.0361,342,-1.8482551715341624
172,0.03652345679012345679012345679,344,-4.0773852555540975
173,0.03694938271604938271604938271,346,1.8047683979056641
174,0.03737777777777777777777777776,348,3.611654092968002
175,0.03780864197530864197530864196,350,0.6097325258990036
176,0.03824197530864197530864197533,352,-0.4192684770661953
177,0.03867777777777777777777777779,354,-0.34322858752664065
178,0.03911604938271604938271604939,356,-4.173474618328115
179,0.03955679012345679012345679013,358,-0.6120828194547921
180,0.04,360,4.265378031486555
181,0.04044567901234567901234567901,362,-0.33927499636386016
182,0.04089382716049382716049382715,364,-4.830051598215274
183,0.04134444444444444444444444443,366,0.5478483523548768
184,0.04179753086419753086419753085,368,2.126015649331382
185,0.04225308641975308641975308644,370,0.47541803697214335
186,0.04271111111111111111111111112,372,-1.8872225613353002
187,0.04317160493827160493827160495,374,-1.199883887256168
188,0.04363456790123456790123456791,376,-1.7377856623737193
189,0.0441,378,0.19026223973675327
190,0.04456790123456790123456790123,380,-5.996457773805342
191,0.04503827160493827160493827160,382,-0.8496222028585158
192,0.04551111111111111111111111110,384,3.119083760618758
193,0.04598641975308641975308641973,386,0.5768135730991036
194,0.04646419753086419753086419755,388,-3.0928543912579745
195,0.04694444444444444444444444446,390,0.029096907336665506
196,0.04742716049382716049382716050,392,-3.1393466623243604
197,0.04791234567901234567901234568,394,5.308226032342539
198,0.0484,396,0.018976702291929017
199,0.04889012345679012345679012345,398,3.4756836504705224
200,0.04938271604938271604938271604,400,2.3081686411877778
201,0.04987777777777777777777777776,402,2.3478266766696363
202,0.05037530864197530864197530862,404,0.8403236477705963
203,0.05087530864197530864197530866,406,-0.2552789519408943
204,0.05137777777777777777777777779,408,-0.41742631240520967
205,0.05188271604938271604938271606,410,-1.4037144660433496
206,0.05239012345679012345679012346,412,-3.0971355600939825
207,0.0529,414,0.41162275823287325
208,0.05341234567901234567901234567,416,0.46114727350430057
209,0.05392716049382716049382716048,418,-2.2797358241642316
210,0.05444444444444444444444444443,420,0.8778258112351836
211,0.05496419753086419753086419751,422,-2.3026463878096393
212,0.05548641975308641975308641977,424,0.34352799747905716
213,0.05601111111111111111111111113,426,-4.049956384430216
214,0.05653827160493827160493827162,428,1.4239681959196675
215,0.05706790123456790123456790124,430,-0.5963725706198286
216,0.0576,432,-0.24610256882189102
217,0.05813456790123456790123456790,434,-2.170825474721505
218,0.05867160493827160493827160493,436,-2.9660481753107084
219,0.05921111111111111111111111109,438,0.47002181325478426
220,0.05975308641975308641975308640,440,-0.698604462902936
221,0.06029753086419753086419753089,442,-0.761418100366485
222,0.06084444444444444444444444446,444,-0.6886569447774856
223,0.06139382716049382716049382717,446,3.5022053419177563
224,0.06194567901234567901234567902,448,-3.218803376031146
225,0.0625,450,2.3028632667651405
226,0.06305679012345679012345679012,452,3.4895925923115625
227,0.06361604938271604938271604937,454,0.030931434736471208
228,0.06417777777777777777777777776,456,-1.014151828781832
229,0.06474197530864197530864197529,458,0.3020849116025413
230,0.06530864197530864197530864200,460,1.5407495011291936
231,0.06587777777777777777777777779,462,4.606194511493317
232,0.06644938271604938271604938273,464,0.4086076013130417
233,0.06702345679012345679012345680,466,-3.5339555540068974
234,0.0676,468,0.034029748325392205
235,0.06817901234567901234567901234,470,-1.4989586681742433
236,0.06876049382716049382716049382,472,-3.4182274911315713
237,0.06934444444444444444444444443,474,-2.8770270121743193
238,0.06993086419753086419753086417,476,0.013158458005230248
239,0.07051975308641975308641975311,478,-3.0773498778631985
240,0.07111111111111111111111111113,480,4.170624959394879
241,0.07170493827160493827160493828,482,0.9511636089331894
242,0.07230123456790123456790123457,484,-1.1390252331075628
243,0.0729,486,-2.19799128889163
244,0.07350123456790123456790123456,488,2.371640989596755
245,0.07410493827160493827160493826,490,-0.03501273478972246
246,0.07471111111111111111111111109,492,-0.31727928152168366
247,0.07531975308641975308641975306,494,-0.3511213754873246
248,0.07593086419753086419753086422,496,-3.1707134328747806
249,0.07654444444444444444444444446,498,0.753823621799762
250,0.07716049382716049382716049384,500,-3.919247415087531
251,0.07777901234567901234567901235,502,2.5864776836381087
252,0.0784,504,-1.0002029917406894
253,0.07902345679012345679012345678,506,-3.1252867787180163
254,0.07964938271604938271604938270,508,-2.397628184282639
255,0.08027777777777777777777777776,510,-0.5250066324774142
256,0.08090864197530864197530864195,512,-2.634059288273651
257,0.08154197530864197530864197533,514,-1.371682301396271
258,0.08217777777777777777777777780,516,1.513721738996852
259,0.08281604938271604938271604940,518,-0.15761780187774227
260,0.08345679012345679012345679013,520,3.800510793714787
261,0.0841,522,2.226885294841448
262,0.08474567901234567901234567901,524,0.5442637103773185
263,0.08539382716049382716049382715,526,-1.5534922766764974
264,0.08604444444444444444444444442,528,-2.0941033739976893
265,0.08669753086419753086419753084,530,1.8255371154901217
266,0.08735308641975308641975308645,532,-3.1280744448872233
267,0.08801111111111111111111111113,534,1.6880447029225003
268,0.08867160493827160493827160495,536,2.1500526906297606
269,0.08933456790123456790123456791,538,5.323470450904235
270,0.09,540,4.416672003166936
271,0.09066790123456790123456790123,542,0.08475843758993294
272,0.09133827160493827160493827159,544,0.6771959602674399
273,0.09201111111111111111111111109,546,0.39810583484837075
274,0.09268641975308641975308641973,548,1.9432761578600681
275,0.09336419753086419753086419756,550,-0.6065138947172496
276,0.09404444444444444444444444446,552,1.3618210873504206
277,0.09472716049382716049382716051,554,4.222216089996455
278,0.09541234567901234567901234569,556,0.5716142648793194
279,0.0961,558,0.39298624522973624
280,0.09679012345679012345679012345,560,1.751751100252657
281,0.09748271604938271604938271604,562,-4.7718803421949065
282,0.09817777777777777777777777776,564,-2.426880118288032
283,0.09887530864197530864197530861,566,-0.7198161108798444
284,0.09957530864197530864197530867,568,2.889215918572227
285,0.1002777777777777777777777778,570,-0.9504289852780722
286,0.1009827160493827160493827161,572,2.957009838048729
287,0.1016901234567901234567901235,574,-3.600875480980599
288,0.1024,576,-2.436484745071969
289,0.1031123456790123456790123457,578,-2.4951978970850583
290,0.1038271604938271604938271605,580,-0.3994995045151493
291,0.1045444444444444444444444444,582,2.471474495115829
292,0.1052641975308641975308641975,584,1.1895342033171137
293,0.1059864197530864197530864198,586,3.7938328184576147
294,0.1067111111111111111111111111,588,-0.35571960386138546
295,0.1074382716049382716049382716,590,0.9742187170486863
296,0.1081679012345679012345679012,592,0.8595074411358673
297,0.1089,594,-0.9783683009121944
298,0.1096345679012345679012345679,596,-0.22405285613991366
299,0.1103716049382716049382716049,598,0.6471486992749629
300,0.1111111111111111111111111111,600,1.6735305920341967
301,0.1118530864197530864197530864,602,1.8781905048231682
302,0.1125975308641975308641975309,604,1.28708021518857
303,0.1133444444444444444444444445,606,3.806719456003488
304,0.1140938271604938271604938272,608,1.0983614868707607
305,0.1148456790123456790123456790,610,1.7903757359235892
306,0.1156,612,1.1373828899203327
307,0.1163567901234567901234567901,614,-2.8005948338221556
308,0.1171160493827160493827160494,616,2.4329844784707615
309,0.1178777777777777777777777778,618,-0.21750963905829515
310,0.1186419753086419753086419753,620,0.062088380783815
311,0.1194086419753086419753086420,622,-2.8678464787599447
312,0.1201777777777777777777777778,624,1.5467637809735
313,0.1209493827160493827160493827,626,-0.32092503704980385
314,0.1217234567901234567901234568,628,0.46680305394085714
315,0.1225,630,-0.2484784322435828
316,0.1232790123456790123456790123,632,2.1849319279166783
317,0.1240604938271604938271604938,634,-2.1774826482799976
318,0.1248444444444444444444444444,636,0.23283992185037508
319,0.1256308641975308641975308642,638,0.33762902337969286
320,0.1264197530864197530864197531,640,-0.20492930120193772
321,0.1272111111111111111111111111,642,1.0573257500564903
322,0.1280049382716049382716049383,644,2.0307966834536204
323,0.1288012345679012345679012346,646,-3.1636311404229858
324,0.1296,648,2.056558402490384
325,0.1304012345679012345679012346,650,-1.9188350063054473
326,0.1312049382716049382716049383,652,1.8176964494086103
327,0.1320111111111111111111111111,654,1.6123653880088187
328,0.1328197530864197530864197531,656,0.6402319903302105
329,0.1336308641975308641975308642,658,3.5765092816629864
330,0.1344444444444444444444444445,660,-1.57167485783734
331,0.1352604938271604938271604938,662,-1.5411290924286427
332,0.1360790123456790123456790124,664,-4.225278378570356
333,0.1369,666,-1.3416452295737251
334,0.1377234567901234567901234568,668,-0.32446650906271646
335,0.1385493827160493827160493827,670,0.15292872500954569
336,0.1393777777777777777777777778,672,-1.6765861878084176
337,0.1402086419753086419753086419,674,-3.4473516786617457
338,0.1410419753086419753086419753,676,-1.084367397482798
339,0.1418777777777777777777777778,678,1.9131960969665895
340,0.1427160493827160493827160494,680,-0.32259151007894193
341,0.1435567901234567901234567901,682,0.5442150317251438
342,0.1444,684,-0.8395950003976653
343,0.1452456790123456790123456790,686,-3.649369900236641
344,0.1460938271604938271604938271,688,-1.309058673348752
345,0.1469444444444444444444444444,690,-4.06775337671999
346,0.1477975308641975308641975308,692,-1.47322967899264
347,0.1486530864197530864197530865,694,0.645877663020286
348,0.1495111111111111111111111111,696,-2.477587710629906
349,0.1503716049382716049382716050,698,2.7019537871725428
350,0.1512345679012345679012345679,700,-0.7885701506313608
351,0.1521,702,-2.7744092958876267
352,0.1529679012345679012345679012,704,3.9360336237991023
353,0.1538382716049382716049382716,706,1.5732149592867972
354,0.1547111111111111111111111111,708,0.03631206512447826
