,Mass (amu),Time (microseconds),Amplitude
0,0,0,-0.26810258649000046
1,0.000001234567901234567901234567901,2,0.8678842104398595
2,0.000004938271604938271604938271604,4,-1.3299372236405214
3,0.00001111111111111111111111111111,6,-0.7476420481007586
4,0.00001975308641975308641975308642,8,2.2815298279527645
5,0.00003086419753086419753086419754,10,-1.697007258414198
6,0.00004444444444444444444444444445,12,0.5964227333259124
7,0.00006049382716049382716049382716,14,1.8359051668753608
8,0.00007901234567901234567901234568,16,2.3111363887281495
9,0.0001,18,-2.8733242306595232
10,0.0001234567901234567901234567901,20,0.6136210348121084
11,0.0001493827160493827160493827160,22,-1.78373195541814
12,0.0001777777777777777777777777777,24,0.9073463306330264
13,0.0002086419753086419753086419752,26,-1.7216907382345095
14,0.0002419753086419753086419753088,28,0.18451377810012712
15,0.0002777777777777777777777777779,30,1.703607133446565
16,0.0003160493827160493827160493828,32,-0.8248267421567979
17,0.0003567901234567901234567901235,34,1.5448181621973711
18,0.0004,36,-0.11411416740933202
19,0.0004456790123456790123456790123,38,1.1555771043442196
20,0.0004938271604938271604938271604,40,-4.184402527625534
21,0.0005444444444444444444444444443,42,-1.6113957089762898
22,0.0005975308641975308641975308640,44,0.4343609843101582
23,0.0006530864197530864197530864200,46,1.2041829628767151
24,0.0007111111111111111111111111113,48,-0.13401654772562538
25,0.0007716049382716049382716049384,50,2.7647504840924944
26,0.0008345679012345679012345679013,52,1.0929174609176913
27,0.0009,54,0.42395764560876326
28,0.0009679012345679012345679012345,56,0.3344093069170705
29,0.001038271604938271604938271605,58,-0.2131455445400623
30,0.001111111111111111111111111111,60,1.6174762190981007
31,0.001186419753086419753086419753,62,-0.39320325249276067
32,0.001264197530864197530864197531,64,-0.9292415126083782
33,0.001344444444444444444444444445,66,0.2814424042302452
34,0.001427160493827160493827160494,68,2.6003323055296845
35,0.001512345679012345679012345679,70,-0.6890474095536555
36,0.0016,72,0.6242710974643761
37,0.001690123456790123456790123457,74,-0.5160929893507054
38,0.001782716049382716049382716049,76,-0.9040096771835179
39,0.001877777777777777777777777777,78,1.1486120176558243
40,0.001975308641975308641975308642,80,0.009474267681403692
41,0.002075308641975308641975308642,82,0.4492597085969261
42,0.002177777777777777777777777778,84,-4.35658444698222
43,0.002282716049382716049382716050,86,-4.683541747961572
44,0.002390123456790123456790123457,88,0.00035271269441565056
45,0.0025,90,1.2992590969710236
46,0.002612345679012345679012345679,92,1.7482331069464363
47,0.002727160493827160493827160494,94,0.12162575809354892
48,0.002844444444444444444444444444,96,2.787231981402385
49,0.002964197530864197530864197530,98,1.9921420480704786
50,0.003086419753086419753086419754,100,-4.424401272108103
51,0.003211111111111111111111111111,102,-0.4881246609721202
52,0.003338271604938271604938271605,104,-3.752144894293985
53,0.003467901234567901234567901235,106,2.485462649665547
54,0.0036,108,-0.35759027117790243
55,0.003734567901234567901234567901,110,-2.940497232065977
56,0.003871604938271604938271604938,112,2.3154009816556433
57,0.004011111111111111111111111111,114,-2.9737805836747566
58,0.004153086419753086419753086419,116,0.9064333412046561
59,0.004297530864197530864197530865,118,3.042851098998152
60,0.004444444444444444444444444445,120,1.6167543402816937
61,0.004593827160493827160493827161,122,4.661131872801498
62,0.004745679012345679012345679012,124,-2.9273752523600534
63,0.0049,126,6.112072472352187
64,0.005056790123456790123456790123,128,0.02162527923927433
65,0.005216049382716049382716049382,130,1.291556313069299
66,0.005377777777777777777777777777,132,4.276346386698326
67,0.005541975308641975308641975308,134,0.9916667860792108
68,0.005708641975308641975308641976,136,-0.5416225108961022
69,0.005877777777777777777777777778,138,0.44851212131575313
70,0.006049382716049382716049382716,140,3.998488201529243
71,0.006223456790123456790123456790,142,-1.2559791036904746
72,0.0064,144,-0.7201147193469755
73,0.006579012345679012345679012345,146,-0.280003669896287
74,0.006760493827160493827160493827,148,1.0027898628918193
75,0.006944444444444444444444444444,150,1.2372241173258702
76,0.007130864197530864197530864197,152,2.229977438309484
77,0.007319753086419753086419753087,154,-0.9509988917570972
78,0.007511111111111111111111111112,156,-4.931871360454428
79,0.007704938271604938271604938272,158,-1.2986395465608118
80,0.007901234567901234567901234568,160,1.56730246834809
81,0.0081,162,4.425215551515983
82,0.008301234567901234567901234568,164,0.7821472323425667
83,0.008504938271604938271604938271,166,0.35296282700267745
84,0.008711111111111111111111111110,168,-3.496901601947037
85,0.008919753086419753086419753086,170,2.9983917917954117
86,0.009130864197530864197530864198,172,-1.2616118302731671
87,0.009344444444444444444444444445,174,-2.5794443843659374
88,0.009560493827160493827160493828,176,0.507156373134906
89,0.009779012345679012345679012346,178,1.305477779204189
90,0.01,180,-4.2113865188195385
91,0.01022345679012345679012345679,182,-2.131322319300831
92,0.01044938271604938271604938271,184,3.0835204235028715
93,0.01067777777777777777777777777,186,5.956195884946722
94,0.01090864197530864197530864197,188,-1.3789002055856776
95,0.01114197530864197530864197532,190,2.10705935295116
96,0.01137777777777777777777777778,192,1.119717155206319
97,0.01161604938271604938271604939,194,-0.3334257232639926
98,0.01185679012345679012345679013,196,3.1579249782205805
99,0.0121,198,-3.744167857146479
100,0.01234567901234567901234567901,200,1.270213594443025
101,0.01259382716049382716049382716,202,1.5301334703503713
102,0.01284444444444444444444444444,204,1.2026315385863802
103,0.01309753086419753086419753085,206,1.0131652608228066
104,0.01335308641975308641975308643,208,3.03356263194041
105,0.01361111111111111111111111112,210,-2.5474391259390137
106,0.01387160493827160493827160494,212,-0.6787122182230956
107,0.01413456790123456790123456790,214,-1.0811062086847052
108,0.0144,216,4.454670148665166
109,0.01466790123456790123456790123,218,-3.302168092242981
110,0.01493827160493827160493827160,220,0.4300728960183699
111,0.01521111111111111111111111110,222,0.12007024358188498
112,0.01548641975308641975308641974,224,0.7475853434359913
113,0.01576419753086419753086419754,226,-1.5035521354960246
114,0.01604444444444444444444444445,228,0.09267951547459512
115,0.01632716049382716049382716050,230,-1.0522181641864183
116,0.01661234567901234567901234568,232,-1.6296331829102186
117,0.0169,234,-3.386954612470754
118,0.01719012345679012345679012345,236,-2.169377123849914
119,0.01748271604938271604938271604,238,1.3897672209915113
120,0.01777777777777777777777777777,240,-1.5875429553335823
121,0.01807530864197530864197530863,242,1.0664829426822828
122,0.01837530864197530864197530865,244,1.9259106102924168
123,0.01867777777777777777777777779,246,0.12032701102104025
124,0.01898271604938271604938271606,248,-0.18767308640117672
125,0.01929012345679012345679012346,250,-0.1329705476441991
126,0.0196,252,-0.12611854779974344
127,0.01991234567901234567901234568,254,-2.758661294604016
128,0.02022716049382716049382716049,256,-2.3722146850700527
129,0.02054444444444444444444444443,258,-1.2923720098304574
130,0.02086419753086419753086419752,260,1.2291647898029467
131,0.02118641975308641975308641977,262,2.923112651327876
132,0.02151111111111111111111111112,264,-3.3923980702509375
133,0.02183827160493827160493827161,266,3.2391706856152105
134,0.02216790123456790123456790124,268,1.232784550948939
135,0.0225,270,-0.6988354998347485
136,0.02283456790123456790123456790,272,-0.09797944034798184
137,0.02317160493827160493827160493,274,-4.443728441166367
138,0.02351111111111111111111111110,276,-0.0313941380582132
139,0.02385308641975308641975308641,278,3.1862997373741333
140,0.02419753086419753086419753088,280,-2.4345342421162934
141,0.02454444444444444444444444445,282,0.7383275347362304
142,0.02489382716049382716049382717,284,-5.162244304767859
143,0.02524567901234567901234567902,286,0.37458752245105253
144,0.0256,288,-0.5685966406911148
145,0.02595679012345679012345679012,290,1.4653677569149974
146,0.02631604938271604938271604938,292,-2.4692847215959524
147,0.02667777777777777777777777777,294,2.498262456398908
148,0.02704197530864197530864197529,296,0.4164400699632322
149,0.02740864197530864197530864199,298,3.8620440831275684
150,0.02777777777777777777777777779,300,-0.6035275301105905
151,0.02814938271604938271604938272,302,-2.7408082527971587
152,0.02852345679012345679012345679,304,-0.7369317559226309
153,0.0289,306,-1.5877427516200675
154,0.02927901234567901234567901234,308,-1.3503052552057788
155,0.02966049382716049382716049382,310,2.2372097796536186
156,0.03004444444444444444444444443,312,-1.9534796575099092
157,0.03043086419753086419753086418,314,2.124550497710753
158,0.03081975308641975308641975310,316,0.6367611256727296
159,0.03121111111111111111111111112,318,5.113232661153066
160,0.03160493827160493827160493828,320,-1.3754354680683736
161,0.03200123456790123456790123457,322,4.171655470840097
162,0.0324,324,-3.747066847353108
163,0.03280123456790123456790123456,326,0.3360934500268834
164,0.03320493827160493827160493826,328,-2.299026102143897
165,0.03361111111111111111111111110,330,1.211819953552402
166,0.03401975308641975308641975307,332,1.3239771207734128
167,0.03443086419753086419753086421,334,-1.4968469233162855
168,0.03484444444444444444444444446,336,0.5190482614140804
169,0.03526049382716049382716049384,338,-1.6051461619580323
170,0.03567901234567901234567901235,340,0.5399227722781486
171,0.0361,342,2.9460255263709394
172,0.03652345679012345679012345679,344,3.7604465393254882
173,0.03694938271604938271604938271,346,-1.0150114797341925
174,0.03737777777777777777777777776,348,-2.0128984423559295
175,0.03780864197530864197530864196,350,-2.6812548677493933
176,0.03824197530864197530864197533,352,1.073294265806522
177,0.03867777777777777777777777779,354,-0.3129899404887353
178,0.03911604938271604938271604939,356,0.7950134029271083
179,0.03955679012345679012345679013,358,-1.326782384645648
180,0.04,360,0.5462363804989875
181,0.04044567901234567901234567901,362,1.5076629418081795
182,0.04089382716049382716049382715,364,1.49931213434783
183,0.04134444444444444444444444443,366,-2.013554069617437
184,0.04179753086419753086419753085,368,-1.154484663283164
185,0.04225308641975308641975308644,370,0.16923680769410032
186,0.04271111111111111111111111112,372,-0.9075233364032025
187,0.04317160493827160493827160495,374,-1.494724183965055
188,0.04363456790123456790123456791,376,-0.05075537446127929
189,0.0441,378,-0.016232017147392374
190,0.04456790123456790123456790123,380,2.9949114723561907
191,0.04503827160493827160493827160,382,-0.20252735419219572
192,0.04551111111111111111111111110,384,-1.124533596642135
193,0.04598641975308641975308641973,386,3.38617362884921
194,0.04646419753086419753086419755,388,0.29664771548104846
195,0.04694444444444444444444444446,390,1.571927383603455
196,0.04742716049382716049382716050,392,-5.2102499126112845
197,0.04791234567901234567901234568,394,-1.7964736553846883
198,0.0484,396,3.329178087054552
199,0.04889012345679012345679012345,398,-2.3783148185284873
200,0.04938271604938271604938271604,400,-2.3630277024495205
201,0.04987777777777777777777777776,402,-2.3155192973434007
202,0.05037530864197530864197530862,404,-0.07383962952323007
203,0.05087530864197530864197530866,406,-1.9478164432894556
204,0.05137777777777777777777777779,408,-2.8262925569841055
205,0.05188271604938271604938271606,410,-2.5498222910610373
206,0.05239012345679012345679012346,412,0.7763377758125861
207,0.0529,414,-1.8244566372391797
208,0.05341234567901234567901234567,416,1.3354575675211044
209,0.05392716049382716049382716048,418,-0.6257552147055366
210,0.05444444444444444444444444443,420,-2.590355353393526
211,0.05496419753086419753086419751,422,0.07511289778772207
212,0.05548641975308641975308641977,424,0.8386673584372755
213,0.05601111111111111111111111113,426,-2.937196639644653
214,0.05653827160493827160493827162,428,-2.3041156876913287
215,0.05706790123456790123456790124,430,0.44645537439777344
216,0.0576,432,2.54856052644408
217,0.05813456790123456790123456790,434,0.9986287317290381
218,0.05867160493827160493827160493,436,-0.8864824574130475
219,0.05921111111111111111111111109,438,-3.8215874921077275
220,0.05975308641975308641975308640,440,2.0933000617305786
221,0.06029753086419753086419753089,442,2.55897834629251
222,0.06084444444444444444444444446,444,-0.6928325485049347
223,0.06139382716049382716049382717,446,0.09654705450470552
224,0.06194567901234567901234567902,448,-0.12012695785172996
225,0.0625,450,3.898710931157736
226,0.06305679012345679012345679012,452,-0.9207950708308504
227,0.06361604938271604938271604937,454,2.100073860414882
228,0.06417777777777777777777777776,456,-3.1872732211934403
229,0.06474197530864197530864197529,458,-1.1225314332519678
230,0.06530864197530864197530864200,460,-2.0721889308475077
231,0.06587777777777777777777777779,462,1.23464844504843
232,0.06644938271604938271604938273,464,-2.2776034337813758
233,0.06702345679012345679012345680,466,0.5893394780060393
234,0.0676,468,0.9905332771176819
235,0.06817901234567901234567901234,470,1.1362059961015316
236,0.06876049382716049382716049382,472,0.41158327486799806
237,0.06934444444444444444444444443,474,0.24790886848146845
238,0.06993086419753086419753086417,476,1.9336124144374514
239,0.07051975308641975308641975311,478,0.8062740056697888
240,0.07111111111111111111111111113,480,-1.4266444328966716
241,0.07170493827160493827160493828,482,0.612859207348152
242,0.07230123456790123456790123457,484,3.594084281425625
243,0.0729,486,1.4764025117716746
244,0.07350123456790123456790123456,488,-2.85896662687793
245,0.07410493827160493827160493826,490,1.3632536113837301
246,0.07471111111111111111111111109,492,-3.9514696073890265
247,0.07531975308641975308641975306,494,-1.5386958244091367
248,0.07593086419753086419753086422,496,-2.964448032465101
249,0.07654444444444444444444444446,498,0.0058753304595028115
250,0.07716049382716049382716049384,500,-0.6099830850325781
251,0.07777901234567901234567901235,502,-1.7404063262790503
252,0.0784,504,-1.886651588381148
253,0.07902345679012345679012345678,506,0.141177183434977
254,0.07964938271604938271604938270,508,-1.5254605126050083
255,0.08027777777777777777777777776,510,0.12323988974553213
256,0.08090864197530864197530864195,512,-0.1774209753539544
257,0.08154197530864197530864197533,514,-0.8622221593635497
258,0.08217777777777777777777777780,516,-1.479738091842471
259,0.08281604938271604938271604940,518,1.7621520560033452
260,0.08345679012345679012345679013,520,-0.1452057185510531
261,0.0841,522,1.1133794222982838
262,0.08474567901234567901234567901,524,-4.4656319235289335
263,0.08539382716049382716049382715,526,0.5627351952547053
264,0.08604444444444444444444444442,528,-0.4427327025479845
265,0.08669753086419753086419753084,530,1.1777954094664136
266,0.08735308641975308641975308645,532,1.5913624860657514
267,0.08801111111111111111111111113,534,2.546477311922365
268,0.08867160493827160493827160495,536,0.5916542749034567
269,0.08933456790123456790123456791,538,-0.6052122282252986
270,0.09,540,2.025891583025601
271,0.09066790123456790123456790123,542,4.911357596515756
272,0.09133827160493827160493827159,544,1.2583703383065639
273,0.09201111111111111111111111109,546,2.2108070534553175
274,0.09268641975308641975308641973,548,0.3929615529334898
275,0.09336419753086419753086419756,550,1.1769875240666232
276,0.09404444444444444444444444446,552,-2.5989594481092952
277,0.09472716049382716049382716051,554,1.890697354743942
278,0.09541234567901234567901234569,556,2.931307072530046
279,0.0961,558,1.942656648645422
280,0.09679012345679012345679012345,560,-0.5572411933288317
281,0.09748271604938271604938271604,562,-3.491069198471186
282,0.09817777777777777777777777776,564,-1.6113957089762887
283,0.09887530864197530864197530861,566,-2.7042758032952734
284,0.09957530864197530864197530867,568,1.1535875459218548
285,0.1002777777777777777777777778,570,1.4253292753723337
286,0.1009827160493827160493827161,572,1.8333379998977064
287,0.1016901234567901234567901235,574,-1.2198280575288643
288,0.1024,576,0.9974090474800337
289,0.1031123456790123456790123457,578,-1.775410532893412
290,0.1038271604938271604938271605,580,4.651001532382928
291,0.1045444444444444444444444444,582,-1.3928234711810195
292,0.1052641975308641975308641975,584,2.965655653114802
293,0.1059864197530864197530864198,586,-2.266921113123766
294,0.1067111111111111111111111111,588,-0.5118903512721452
295,0.1074382716049382716049382716,590,1.8491911837716883
296,0.1081679012345679012345679012,592,1.1822217561896908
297,0.1089,594,-0.770874062437376
298,0.1096345679012345679012345679,596,-4.364949173496157
299,0.1103716049382716049382716049,598,1.5935323552987806
300,0.1111111111111111111111111111,600,1.8515135816913244
301,0.1118530864197530864197530864,602,-2.173121763090591
302,0.1125975308641975308641975309,604,1.9345836679986044
303,0.1133444444444444444444444445,606,-0.1530376348874299
304,0.1140938271604938271604938272,608,1.0620321313059902
305,0.1148456790123456790123456790,610,0.5873534640578852
306,0.1156,612,0.6035105067133796
307,0.1163567901234567901234567901,614,-1.1769673084830723
308,0.1171160493827160493827160494,616,-2.6877647586618134
309,0.1178777777777777777777777778,618,0.3433865839641338
310,0.1186419753086419753086419753,620,3.3476592596209396
311,0.1194086419753086419753086420,622,-0.010717062164202672
312,0.1201777777777777777777777778,624,-1.7765414636741184
313,0.1209493827160493827160493827,626,2.5038429915935114
314,0.1217234567901234567901234568,628,-2.79710508927267
315,0.1225,630,2.207255953077739
316,0.1232790123456790123456790123,632,2.4016094128631003
317,0.1240604938271604938271604938,634,1.2148776206131036
318,0.1248444444444444444444444444,636,-1.1880266896286948
319,0.1256308641975308641975308642,638,-0.01452268066025581
320,0.1264197530864197530864197531,640,2.3881706820463595
321,0.1272111111111111111111111111,642,-0.29825073756818365
322,0.1280049382716049382716049383,644,1.3421008832450452
323,0.1288012345679012345679012346,646,0.3667506127554883
324,0.1296,648,-2.9618556674679986
325,0.1304012345679012345679012346,650,-1.6463278089526796
326,0.1312049382716049382716049383,652,4.389197210697049
327,0.1320111111111111111111111111,654,2.4875191236857446
328,0.1328197530864197530864197531,656,-2.2981783584701043
329,0.1336308641975308641975308642,658,-1.622881270597042
330,0.1344444444444444444444444445,660,0.7204396636784495
331,0.1352604938271604938271604938,662,-0.8911113071125804
332,0.1360790123456790123456790124,664,-1.7518140913783111
333,0.1369,666,-0.4719946671376617
334,0.1377234567901234567901234568,668,0.8104193437777053
335,0.1385493827160493827160493827,670,-0.8251924212927318
336,0.1393777777777777777777777778,672,-0.8403172942042075
337,0.1402086419753086419753086419,674,-0.9680467236757103
338,0.1410419753086419753086419753,676,2.1026052110526106
339,0.1418777777777777777777777778,678,0.23762016936433303
340,0.1427160493827160493827160494,680,2.2219878181032797
341,0.1435567901234567901234567901,682,-1.0548986056511396
342,0.1444,684,2.829981847147295
343,0.1452456790123456790123456790,686,1.3366866769627206
344,0.1460938271604938271604938271,688,-1.9606013345747872
345,0.1469444444444444444444444444,690,0.9377457740298276
346,0.1477975308641975308641975308,692,-2.4640213127446016
347,0.1486530864197530864197530865,694,-0.667714680872653
348,0.1495111111111111111111111111,696,4.205299946701581
349,0.1503716049382716049382716050,698,-2.6587068835513183
350,0.1512345679012345679012345679,700,2.5759251409066293
351,0.1521,702,-4.224682422819228
352,0.1529679012345679012345679012,704,4.256873706764465
353,0.1538382716049382716049382716,706,-0.9333652068775213
354,0.1547111111111111111111111111,708,1.9209243552638835
