,Mass (amu),Time (microseconds),Amplitude
0,0,0,-1.9507454985861274
1,0.000001234567901234567901234567901,2,1.4705195711674794
2,0.000004938271604938271604938271604,4,-0.32957070321686605
3,0.00001111111111111111111111111111,6,-0.9255126732117177
4,0.00001975308641975308641975308642,8,3.3415488858318203
5,0.00003086419753086419753086419754,10,3.051369913614708
6,0.00004444444444444444444444444445,12,-0.8060689408046009
7,0.00006049382716049382716049382716,14,1.6318282395160708
8,0.00007901234567901234567901234568,16,-2.3956449152634125
9,0.0001,18,-0.5721989989425946
10,0.0001234567901234567901234567901,20,1.9454440695561166
11,0.0001493827160493827160493827160,22,-4.1933574402094465
12,0.0001777777777777777777777777777,24,0.8706494326928204
13,0.0002086419753086419753086419752,26,2.609178299433076
14,0.0002419753086419753086419753088,28,-0.77824358448216
15,0.0002777777777777777777777777779,30,-0.944410602262986
16,0.0003160493827160493827160493828,32,3.954676904459809
17,0.0003567901234567901234567901235,34,-1.9624232887105015
18,0.0004,36,-1.0151083387998918
19,0.0004456790123456790123456790123,38,1.0308372991935217
20,0.0004938271604938271604938271604,40,1.9649867374829362
21,0.0005444444444444444444444444443,42,0.8005899737886158
22,0.0005975308641975308641975308640,44,1.0279495373265108
23,0.0006530864197530864197530864200,46,1.2354240902942188
24,0.0007111111111111111111111111113,48,-3.0057192291448476
25,0.0007716049382716049382716049384,50,2.808871630034661
26,0.0008345679012345679012345679013,52,4.540551897793855
27,0.0009,54,-2.1435080364972214
28,0.0009679012345679012345679012345,56,0.4677653870194632
29,0.001038271604938271604938271605,58,-4.683941884367525
30,0.001111111111111111111111111111,60,-3.095343913815267
31,0.001186419753086419753086419753,62,1.5005001033032686
32,0.001264197530864197530864197531,64,-0.30407655425097035
33,0.001344444444444444444444444445,66,-3.253128585854588
34,0.001427160493827160493827160494,68,0.8401128976207415
35,0.001512345679012345679012345679,70,1.7576047419366834
36,0.0016,72,2.670033361492665
37,0.001690123456790123456790123457,74,1.680139988159247
38,0.001782716049382716049382716049,76,1.857780131849014
39,0.001877777777777777777777777777,78,-2.940833899667347
40,0.001975308641975308641975308642,80,-1.8269647658597588
41,0.002075308641975308641975308642,82,-0.32647691116667577
42,0.002177777777777777777777777778,84,1.9663755565137548
43,0.002282716049382716049382716050,86,4.024325688270743
44,0.002390123456790123456790123457,88,-3.25499418485072
45,0.0025,90,3.1199707869859745
46,0.002612345679012345679012345679,92,2.398278845156962
47,0.002727160493827160493827160494,94,1.0723331843634272
48,0.002844444444444444444444444444,96,0.9943554855945504
49,0.002964197530864197530864197530,98,-2.4180566356422384
50,0.003086419753086419753086419754,100,1.9606637828585665
51,0.003211111111111111111111111111,102,-1.3761248801089143
52,0.003338271604938271604938271605,104,-0.12580674866743602
53,0.003467901234567901234567901235,106,-3.9169195716256113
54,0.0036,108,0.32446253083623455
55,0.003734567901234567901234567901,110,0.6506991600332698
56,0.003871604938271604938271604938,112,0.6088680501058302
57,0.004011111111111111111111111111,114,1.9358580743670686
58,0.004153086419753086419753086419,116,-0.18892601514434584
59,0.004297530864197530864197530865,118,0.3303584259528161
60,0.004444444444444444444444444445,120,3.081588720187573
61,0.004593827160493827160493827161,122,-1.9828842063580765
62,0.004745679012345679012345679012,124,-0.5158305725433163
63,0.0049,126,-0.6909377493206603
64,0.005056790123456790123456790123,128,-1.336979686986998
65,0.005216049382716049382716049382,130,2.509030200579241
66,0.005377777777777777777777777777,132,3.6162359054061803
67,0.005541975308641975308641975308,134,1.2942548495795805
68,0.005708641975308641975308641976,136,-1.7095155283686863
69,0.005877777777777777777777777778,138,1.2010757451480412
70,0.006049382716049382716049382716,140,0.7849132640314161
71,0.006223456790123456790123456790,142,-1.5286999162924833
72,0.0064,144,2.5786108200533024
73,0.006579012345679012345679012345,146,-2.424915554510574
74,0.006760493827160493827160493827,148,2.082695078272093
75,0.006944444444444444444444444444,150,-0.6250473388769898
76,0.007130864197530864197530864197,152,1.3730699822900905
77,0.007319753086419753086419753087,154,1.206839973875748
78,0.007511111111111111111111111112,156,1.5001221170816617
79,0.007704938271604938271604938272,158,1.399109872523228
80,0.007901234567901234567901234568,160,1.3680545597952534
81,0.0081,162,-1.5292646310877775
82,0.008301234567901234567901234568,164,3.588568553237722
83,0.008504938271604938271604938271,166,-1.1519314246209715
84,0.008711111111111111111111111110,168,1.3031568571347765
85,0.008919753086419753086419753086,170,0.7525132657712175
86,0.009130864197530864197530864198,172,2.4357278048988475
87,0.009344444444444444444444444445,174,-0.9192344981207783
88,0.009560493827160493827160493828,176,-0.2522676667762535
89,0.009779012345679012345679012346,178,-4.091213618103744
90,0.01,180,-5.782797126768274
91,0.01022345679012345679012345679,182,-1.0022357882224158
92,0.01044938271604938271604938271,184,3.926995205819352
93,0.01067777777777777777777777777,186,0.5139557060171491
94,0.01090864197530864197530864197,188,1.7121019248208897
95,0.01114197530864197530864197532,190,4.015121784535987
96,0.01137777777777777777777777778,192,0.5132747547987261
97,0.01161604938271604938271604939,194,-0.5045429126733864
98,0.01185679012345679012345679013,196,-1.7828368442284421
99,0.0121,198,-0.3654852760471633
100,0.01234567901234567901234567901,200,2.77966459016257
101,0.01259382716049382716049382716,202,1.8119347575002036
102,0.01284444444444444444444444444,204,3.8556770547432984
103,0.01309753086419753086419753085,206,0.3490822653278689
104,0.01335308641975308641975308643,208,1.0781701113494202
105,0.01361111111111111111111111112,210,-1.8673634271874309
106,0.01387160493827160493827160494,212,-0.757071807736439
107,0.01413456790123456790123456790,214,-4.323757662937175
108,0.0144,216,1.0181213847219528
109,0.01466790123456790123456790123,218,3.3682285082728733
110,0.01493827160493827160493827160,220,-1.9723367072354414
111,0.01521111111111111111111111110,222,-2.916639519844559
112,0.01548641975308641975308641974,224,0.17603383459134753
113,0.01576419753086419753086419754,226,3.065899376574995
114,0.01604444444444444444444444445,228,-3.7736450054437247
115,0.01632716049382716049382716050,230,1.731084208023135
116,0.01661234567901234567901234568,232,1.166018829301204
117,0.0169,234,0.6242270296882694
118,0.01719012345679012345679012345,236,-2.258133722022267
119,0.01748271604938271604938271604,238,-0.647705166193447
120,0.01777777777777777777777777777,240,-3.3548184759286066
121,0.01807530864197530864197530863,242,0.5963484550156015
122,0.01837530864197530864197530865,244,0.46170987788039786
123,0.01867777777777777777777777779,246,-5.079183876216995
124,0.01898271604938271604938271606,248,-4.449302317384533
125,0.01929012345679012345679012346,250,-1.6372062071099358
126,0.0196,252,4.744331443735075
127,0.01991234567901234567901234568,254,-1.2061896024606171
128,0.02022716049382716049382716049,256,-2.0174450264867634
129,0.02054444444444444444444444443,258,-2.5272234977098944
130,0.02086419753086419753086419752,260,-0.25362798265532593
131,0.02118641975308641975308641977,262,-0.6366839760206074
132,0.02151111111111111111111111112,264,-0.8024804400844241
133,0.02183827160493827160493827161,266,1.3817650587118309
134,0.02216790123456790123456790124,268,1.013728450506508
135,0.0225,270,-2.9669819402362836
136,0.02283456790123456790123456790,272,2.050910346200562
137,0.02317160493827160493827160493,274,-0.4787304535191086
138,0.02351111111111111111111111110,276,0.8727676244590119
139,0.02385308641975308641975308641,278,5.289988589398595
140,0.02419753086419753086419753088,280,1.91893627808752
141,0.02454444444444444444444444445,282,-3.1770247435804455
142,0.02489382716049382716049382717,284,-0.8198633130415923
143,0.02524567901234567901234567902,286,3.1527753501951636
144,0.0256,288,-4.959531062321389
145,0.02595679012345679012345679012,290,1.5418750962985166
146,0.02631604938271604938271604938,292,-0.30123092434351056
147,0.02667777777777777777777777777,294,1.5866548987791083
148,0.02704197530864197530864197529,296,-1.2149097210995023
149,0.02740864197530864197530864199,298,-0.8172779378795973
150,0.02777777777777777777777777779,300,2.2800043799029646
151,0.02814938271604938271604938272,302,0.01979238240231623
152,0.02852345679012345679012345679,304,1.7749512945126473
153,0.0289,306,-2.6317249006752568
154,0.02927901234567901234567901234,308,-1.1196362039766141
155,0.02966049382716049382716049382,310,1.7546588722347707
156,0.03004444444444444444444444443,312,-0.4833362498626039
157,0.03043086419753086419753086418,314,0.3982234599493387
158,0.03081975308641975308641975310,316,-0.6096045815175347
159,0.03121111111111111111111111112,318,-0.8310402772281327
160,0.03160493827160493827160493828,320,-0.10176863364648807
161,0.03200123456790123456790123457,322,-0.833104335131124
162,0.0324,324,0.48612323019466863
163,0.03280123456790123456790123456,326,-2.549311594675981
164,0.03320493827160493827160493826,328,-1.0398318281051016
165,0.03361111111111111111111111110,330,0.8886323522670896
166,0.03401975308641975308641975307,332,-4.72246100207876
167,0.03443086419753086419753086421,334,1.534665750308209
168,0.03484444444444444444444444446,336,-0.2551467980984602
169,0.03526049382716049382716049384,338,-1.155347638339466
170,0.03567901234567901234567901235,340,-2.0858892926135586
171,0.0361,342,1.9105585949849093
172,0.03652345679012345679012345679,344,-1.048106234523641
173,0.03694938271604938271604938271,346,-2.700132898173381
174,0.03737777777777777777777777776,348,-1.508320296708855
175,0.03780864197530864197530864196,350,-3.9610275128327492
176,0.03824197530864197530864197533,352,-6.014003509299259
177,0.03867777777777777777777777779,354,-1.0165386304202302
178,0.03911604938271604938271604939,356,4.325295578878999
179,0.03955679012345679012345679013,358,3.2140599753883707
180,0.04,360,0.8682034230450801
181,0.04044567901234567901234567901,362,-1.1316205057264053
182,0.04089382716049382716049382715,364,-5.440386898127423
183,0.04134444444444444444444444443,366,4.292109569965737
184,0.04179753086419753086419753085,368,-0.3629248710200562
185,0.04225308641975308641975308644,370,-0.22030100081100817
186,0.04271111111111111111111111112,372,-0.6763990063458053
187,0.04317160493827160493827160495,374,-4.810665613835346
188,0.04363456790123456790123456791,376,-1.4643812422643452
189,0.0441,378,-3.8411455822791067
190,0.04456790123456790123456790123,380,2.270668537788963
191,0.04503827160493827160493827160,382,-0.14645827560663674
192,0.04551111111111111111111111110,384,2.364353691671999
193,0.04598641975308641975308641973,386,-1.9290302455943928
194,0.04646419753086419753086419755,388,-1.0448440978841325
195,0.04694444444444444444444444446,390,-0.34696199317142346
196,0.04742716049382716049382716050,392,2.169482613203933
197,0.04791234567901234567901234568,394,-0.9167460588628294
198,0.0484,396,-0.9860137798025574
199,0.04889012345679012345679012345,398,2.2523107929902
200,0.04938271604938271604938271604,400,1.51124841460018
201,0.04987777777777777777777777776,402,1.7169752588089753
202,0.05037530864197530864197530862,404,0.6696061412039522
203,0.05087530864197530864197530866,406,-3.5294771244497993
204,0.05137777777777777777777777779,408,-2.809411066413413
205,0.05188271604938271604938271606,410,5.309974479234106
206,0.05239012345679012345679012346,412,1.3916245860618581
207,0.0529,414,0.01644201740342587
208,0.05341234567901234567901234567,416,-0.9976121042695149
209,0.05392716049382716049382716048,418,3.3093367812601096
210,0.05444444444444444444444444443,420,1.8164388872684145
211,0.05496419753086419753086419751,422,-0.8493544683999181
212,0.05548641975308641975308641977,424,-1.598749316807577
213,0.05601111111111111111111111113,426,-0.1144487675314448
214,0.05653827160493827160493827162,428,-1.8767528967666587
215,0.05706790123456790123456790124,430,-0.925239893433451
216,0.0576,432,-0.02309230025373336
217,0.05813456790123456790123456790,434,-0.42428876081113104
218,0.05867160493827160493827160493,436,-1.4041448602554825
219,0.05921111111111111111111111109,438,2.3607202766945385
220,0.05975308641975308641975308640,440,-3.563896957128245
221,0.06029753086419753086419753089,442,0.034497957596100935
222,0.06084444444444444444444444446,444,-5.297989321528009
223,0.06139382716049382716049382717,446,-4.87720529579942
224,0.06194567901234567901234567902,448,1.4263421490273311
225,0.0625,450,4.070360612612156
226,0.06305679012345679012345679012,452,0.19660043311056685
227,0.06361604938271604938271604937,454,-2.8214403025959274
228,0.06417777777777777777777777776,456,4.166399689621026
229,0.06474197530864197530864197529,458,0.24986642395981346
230,0.06530864197530864197530864200,460,2.6482268603313397
231,0.06587777777777777777777777779,462,-5.0156023576054185
232,0.06644938271604938271604938273,464,2.2779345760221514
233,0.06702345679012345679012345680,466,5.377476773063294
234,0.0676,468,-1.7719240113899308
235,0.06817901234567901234567901234,470,1.172195522336632
236,0.06876049382716049382716049382,472,4.583218887037571
237,0.06934444444444444444444444443,474,1.4175248622793077
238,0.06993086419753086419753086417,476,1.4628087717605207
239,0.07051975308641975308641975311,478,1.3846936204305793
240,0.07111111111111111111111111113,480,-2.0803790969614844
241,0.07170493827160493827160493828,482,0.7717242309225741
242,0.07230123456790123456790123457,484,2.011631469644197
243,0.0729,486,-3.9431912366451676
244,0.07350123456790123456790123456,488,3.03787904727826
245,0.07410493827160493827160493826,490,-0.14830262628798851
246,0.07471111111111111111111111109,492,1.4746573324669017
247,0.07531975308641975308641975306,494,1.7235757976618382
248,0.07593086419753086419753086422,496,2.3789040207657988
249,0.07654444444444444444444444446,498,1.623294851640313
250,0.07716049382716049382716049384,500,0.9858312746982298
251,0.07777901234567901234567901235,502,1.9434257062113895
252,0.0784,504,-3.5794607975889905
253,0.07902345679012345679012345678,506,-4.95694042457653
254,0.07964938271604938271604938270,508,0.4423193361578706
255,0.08027777777777777777777777776,510,-3.351038243993264
256,0.08090864197530864197530864195,512,0.6782425975366729
257,0.08154197530864197530864197533,514,6.395347144479335
258,0.08217777777777777777777777780,516,1.759758576628816
259,0.08281604938271604938271604940,518,-1.6827662890809894
260,0.08345679012345679012345679013,520,0.6835212227756307
261,0.0841,522,-3.5977372907864082
262,0.08474567901234567901234567901,524,-1.7064072164795623
263,0.08539382716049382716049382715,526,4.749069053328979
264,0.08604444444444444444444444442,528,-2.6377394783185237
265,0.08669753086419753086419753084,530,2.769518495338662
266,0.08735308641975308641975308645,532,2.5093272937023308
267,0.08801111111111111111111111113,534,4.086371040907072
268,0.08867160493827160493827160495,536,1.8891749878978978
269,0.08933456790123456790123456791,538,3.6389477160036465
270,0.09,540,0.5152024018820295
271,0.09066790123456790123456790123,542,-2.156931011623961
272,0.09133827160493827160493827159,544,-1.9154628970288383
273,0.09201111111111111111111111109,546,-5.723355123666759
274,0.09268641975308641975308641973,548,2.1965503781274407
275,0.09336419753086419753086419756,550,-6.046070253986822
276,0.09404444444444444444444444446,552,1.091925851930335
277,0.09472716049382716049382716051,554,-2.521556969670929
278,0.09541234567901234567901234569,556,2.2847334227503833
279,0.0961,558,-0.36428928263515725
280,0.09679012345679012345679012345,560,2.3204100615932512
281,0.09748271604938271604938271604,562,4.093757667558091
282,0.09817777777777777777777777776,564,-0.05017176562253035
283,0.09887530864197530864197530861,566,-0.46046037121895544
284,0.09957530864197530864197530867,568,1.7884641535841939
285,0.1002777777777777777777777778,570,2.2276529693315794
286,0.1009827160493827160493827161,572,0.9506815227727367
287,0.1016901234567901234567901235,574,-1.7828538027610705
288,0.1024,576,-4.775787990091373
289,0.1031123456790123456790123457,578,0.3780532555719697
290,0.1038271604938271604938271605,580,1.9863780311841501
291,0.1045444444444444444444444444,582,4.889547568825048
292,0.1052641975308641975308641975,584,2.971559101064733
293,0.1059864197530864197530864198,586,-2.569153129473374
294,0.1067111111111111111111111111,588,1.0836821961634493
295,0.1074382716049382716049382716,590,0.2849901604489342
296,0.1081679012345679012345679012,592,4.115976583517453
297,0.1089,594,4.455593570718093
298,0.1096345679012345679012345679,596,4.634928618377293
299,0.1103716049382716049382716049,598,-0.5554905987234474
300,0.1111111111111111111111111111,600,-2.071146743843792
301,0.1118530864197530864197530864,602,-1.8545911992253175
302,0.1125975308641975308641975309,604,0.7539828063153268
303,0.1133444444444444444444444445,606,3.0859631766906346
304,0.1140938271604938271604938272,608,-2.098683774751897
305,0.1148456790123456790123456790,610,-0.12778585719710445
306,0.1156,612,-1.608488706954763
307,0.1163567901234567901234567901,614,2.4529840101462064
308,0.1171160493827160493827160494,616,2.1514570836009375
309,0.1178777777777777777777777778,618,0.8988009588576331
310,0.1186419753086419753086419753,620,-2.153874432131067
311,0.1194086419753086419753086420,622,3.2674302353554383
312,0.1201777777777777777777777778,624,2.3263183784286356
313,0.1209493827160493827160493827,626,-3.9513375813522376
314,0.1217234567901234567901234568,628,0.2911530551559285
315,0.1225,630,-0.5811483290212247
316,0.1232790123456790123456790123,632,-0.3845337583419223
317,0.1240604938271604938271604938,634,5.532398525690258
318,0.1248444444444444444444444444,636,-3.341333770836844
319,0.1256308641975308641975308642,638,-5.640063976348615
320,0.1264197530864197530864197531,640,-0.8368614954071125
321,0.1272111111111111111111111111,642,5.77234788069749
322,0.1280049382716049382716049383,644,-3.515169267697806
323,0.1288012345679012345679012346,646,0.8000027002472623
324,0.1296,648,1.0438891940156851
325,0.1304012345679012345679012346,650,-2.64043451798339
326,0.1312049382716049382716049383,652,-0.28453689279211314
327,0.1320111111111111111111111111,654,-2.320897670963577
328,0.1328197530864197530864197531,656,1.4722092062296932
329,0.1336308641975308641975308642,658,1.7947544590397357
330,0.1344444444444444444444444445,660,3.640052287654741
331,0.1352604938271604938271604938,662,-1.6365092128492391
332,0.1360790123456790123456790124,664,0.7967277520591445
333,0.1369,666,-3.1424145330893367
334,0.1377234567901234567901234568,668,0.5866050006881888
335,0.1385493827160493827160493827,670,-0.765693820212183
336,0.1393777777777777777777777778,672,0.46471858707333524
337,0.1402086419753086419753086419,674,2.0899147431084404
338,0.1410419753086419753086419753,676,-4.806151629643557
339,0.1418777777777777777777777778,678,-3.5304392449577016
340,0.1427160493827160493827160494,680,1.8968406475235728
341,0.1435567901234567901234567901,682,1.7422840709395682
342,0.1444,684,-3.1994005582995624
343,0.1452456790123456790123456790,686,0.796285364312176
344,0.1460938271604938271604938271,688,-1.48954495371303
345,0.1469444444444444444444444444,690,1.301127742285236
346,0.1477975308641975308641975308,692,-3.653448521031955
347,0.1486530864197530864197530865,694,-2.071683223573423
348,0.1495111111111111111111111111,696,2.226655425479944
349,0.1503716049382716049382716050,698,0.624819100747908
350,0.1512345679012345679012345679,700,0.7144807300793082
351,0.1521,702,0.44677740385573966
352,0.1529679012345679012345679012,704,0.6702219917511005
353,0.1538382716049382716049382716,706,1.7176805981565015
354,0.1547111111111111111111111111,708,1.235962595171987
355,0.1555864197530864197530864197,710,-4.3486852259524
