,Mass (amu),Time (microseconds),Amplitude
0,0,0,2.621401334423145
1,0.000001234567901234567901234567901,2,-0.7260110524171468
2,0.000004938271604938271604938271604,4,-0.6201144469266492
3,0.00001111111111111111111111111111,6,1.1531919768916503
4,0.00001975308641975308641975308642,8,1.7970959500382195
5,0.00003086419753086419753086419754,10,0.10597768132563168
6,0.00004444444444444444444444444445,12,-0.28467644893153976
7,0.00006049382716049382716049382716,14,1.5063970798028747
8,0.00007901234567901234567901234568,16,-4.706636225583856
9,0.0001,18,2.274791962545462
10,0.0001234567901234567901234567901,20,-0.6660515254330497
11,0.0001493827160493827160493827160,22,-2.669344515898971
12,0.0001777777777777777777777777777,24,0.3066270159134371
13,0.0002086419753086419753086419752,26,-3.077115615927692
14,0.0002419753086419753086419753088,28,3.104060024901856
15,0.0002777777777777777777777777779,30,1.3137454903201355
16,0.0003160493827160493827160493828,32,-3.1214183615350466
17,0.0003567901234567901234567901235,34,-3.548064849960129
18,0.0004,36,-0.54311886814431
19,0.0004456790123456790123456790123,38,-0.2366271887171709
20,0.0004938271604938271604938271604,40,-0.5304672474288139
21,0.0005444444444444444444444444443,42,-3.193615125774608
22,0.0005975308641975308641975308640,44,3.5006546254992883
23,0.0006530864197530864197530864200,46,-0.7445766415046094
24,0.0007111111111111111111111111113,48,2.0528773921694294
25,0.0007716049382716049382716049384,50,3.879435894837516
26,0.0008345679012345679012345679013,52,-2.1196932074692802
27,0.0009,54,3.3641088001746167
28,0.0009679012345679012345679012345,56,1.853916831015985
29,0.001038271604938271604938271605,58,-2.5034385695410024
30,0.001111111111111111111111111111,60,0.8715394074416672
31,0.001186419753086419753086419753,62,-0.9928489943846014
32,0.001264197530864197530864197531,64,-1.2490503953272147
33,0.001344444444444444444444444445,66,-0.48762709333555054
34,0.001427160493827160493827160494,68,-2.1625959906060275
35,0.001512345679012345679012345679,70,-0.8457224080920596
36,0.0016,72,-2.4256950490787355
37,0.001690123456790123456790123457,74,4.690995978505508
38,0.001782716049382716049382716049,76,0.13583405132378396
39,0.001877777777777777777777777777,78,-0.6321819456994083
40,0.001975308641975308641975308642,80,-0.9143798064797057
41,0.002075308641975308641975308642,82,-1.8503629756155464
42,0.002177777777777777777777777778,84,-0.7968367706149486
43,0.002282716049382716049382716050,86,-2.162710660245821
44,0.002390123456790123456790123457,88,3.809876007374677
45,0.0025,90,-2.7885990932573383
46,0.002612345679012345679012345679,92,-0.7337435915850755
47,0.002727160493827160493827160494,94,0.9152203998022452
48,0.002844444444444444444444444444,96,-2.906585356343559
49,0.002964197530864197530864197530,98,-1.7063596361224633
50,0.003086419753086419753086419754,100,0.192540109971066
51,0.003211111111111111111111111111,102,-1.1839803300943121
52,0.003338271604938271604938271605,104,-1.8700640415745575
53,0.003467901234567901234567901235,106,0.9241413742809529
54,0.0036,108,1.6850454481535178
55,0.003734567901234567901234567901,110,2.93348845275059
56,0.003871604938271604938271604938,112,1.2528746214890298
57,0.004011111111111111111111111111,114,-1.1472028727645238
58,0.004153086419753086419753086419,116,-0.7452347957343861
59,0.004297530864197530864197530865,118,3.183482238659665
60,0.004444444444444444444444444445,120,0.7497708536604955
61,0.004593827160493827160493827161,122,-0.294214360310181
62,0.004745679012345679012345679012,124,0.8868238355671185
63,0.0049,126,-1.5530933873623542
64,0.005056790123456790123456790123,128,2.3485333458826654
65,0.005216049382716049382716049382,130,3.0072364889724437
66,0.005377777777777777777777777777,132,2.493000151988147
67,0.005541975308641975308641975308,134,1.181679707308331
68,0.005708641975308641975308641976,136,4.155660235685676
69,0.005877777777777777777777777778,138,-1.7868401065924906
70,0.006049382716049382716049382716,140,2.54315767557265
71,0.006223456790123456790123456790,142,-4.447745579306647
72,0.0064,144,-2.650854088799607
73,0.006579012345679012345679012345,146,-3.7650650782715607
74,0.006760493827160493827160493827,148,1.741709154257573
75,0.006944444444444444444444444444,150,-4.818579985312338
76,0.007130864197530864197530864197,152,-0.6045953926417752
77,0.007319753086419753086419753087,154,-1.2059797713221116
78,0.007511111111111111111111111112,156,-2.5630898845885914
79,0.007704938271604938271604938272,158,2.5405305526975015
80,0.007901234567901234567901234568,160,-3.2062192344755585
81,0.0081,162,1.948616099051571
82,0.008301234567901234567901234568,164,2.8686041278263645
83,0.008504938271604938271604938271,166,1.4404872523740149
84,0.008711111111111111111111111110,168,-1.3820865883278672
85,0.008919753086419753086419753086,170,-2.932505639779688
86,0.009130864197530864197530864198,172,1.6214636619158131
87,0.009344444444444444444444444445,174,-1.6590059862782347
88,0.009560493827160493827160493828,176,-0.4463751542428425
89,0.009779012345679012345679012346,178,-4.824852437323729
90,0.01,180,0.48561641529533484
91,0.01022345679012345679012345679,182,-5.576174000204443
92,0.01044938271604938271604938271,184,-1.8646944119185966
93,0.01067777777777777777777777777,186,3.3428689423797944
94,0.01090864197530864197530864197,188,0.17696493593678622
95,0.01114197530864197530864197532,190,-3.0137753662360574
96,0.01137777777777777777777777778,192,1.2134223089513414
97,0.01161604938271604938271604939,194,-0.5841466535922271
98,0.01185679012345679012345679013,196,4.486447340067601
99,0.0121,198,-2.5282045794801986
100,0.01234567901234567901234567901,200,4.6979498310009244
101,0.01259382716049382716049382716,202,-4.136094137193599
102,0.01284444444444444444444444444,204,-2.345584507546966
103,0.01309753086419753086419753085,206,-3.6201742335854195
104,0.01335308641975308641975308643,208,2.5228699258610607
105,0.01361111111111111111111111112,210,0.8014361698012995
106,0.01387160493827160493827160494,212,4.358873633025593
107,0.01413456790123456790123456790,214,-3.5859640775870543
108,0.0144,216,1.7391277146066344
109,0.01466790123456790123456790123,218,2.028030094346637
110,0.01493827160493827160493827160,220,-0.592593014029993
111,0.01521111111111111111111111110,222,1.218465587410585
112,0.01548641975308641975308641974,224,-3.129640271932368
113,0.01576419753086419753086419754,226,-1.4728243973685982
114,0.01604444444444444444444444445,228,1.30229394011214
115,0.01632716049382716049382716050,230,1.322102199129162
116,0.01661234567901234567901234568,232,-0.33011212449581173
117,0.0169,234,4.568222538375852
118,0.01719012345679012345679012345,236,1.9811296963864606
119,0.01748271604938271604938271604,238,0.03724844051145449
120,0.01777777777777777777777777777,240,-0.8332140619837387
121,0.01807530864197530864197530863,242,-6.214079656889892
122,0.01837530864197530864197530865,244,3.589146190882096
123,0.01867777777777777777777777779,246,-3.9912045639510714
124,0.01898271604938271604938271606,248,3.863880982114196
125,0.01929012345679012345679012346,250,2.704627782942989
126,0.0196,252,2.6130257021253356
127,0.01991234567901234567901234568,254,2.754254540543704
128,0.02022716049382716049382716049,256,-0.3030501774385638
129,0.02054444444444444444444444443,258,0.4312563357155174
130,0.02086419753086419753086419752,260,0.9165628317411311
131,0.02118641975308641975308641977,262,2.5725951196570356
132,0.02151111111111111111111111112,264,-1.0060614683749425
133,0.02183827160493827160493827161,266,0.38349674145754953
134,0.02216790123456790123456790124,268,-0.22180281301573407
135,0.0225,270,0.9511761912787938
136,0.02283456790123456790123456790,272,2.646649933784981
137,0.02317160493827160493827160493,274,1.6053469876209612
138,0.02351111111111111111111111110,276,0.5801831007649096
139,0.02385308641975308641975308641,278,-0.3878435922245512
140,0.02419753086419753086419753088,280,-2.166532961857601
141,0.02454444444444444444444444445,282,3.261822124503384
142,0.02489382716049382716049382717,284,1.1733022790168193
143,0.02524567901234567901234567902,286,1.5156929963966057
144,0.0256,288,-3.975474946053613
145,0.02595679012345679012345679012,290,1.732265441496926
146,0.02631604938271604938271604938,292,-5.2492396978016505
147,0.02667777777777777777777777777,294,-1.516325485860096
148,0.02704197530864197530864197529,296,-4.2637238190737055
149,0.02740864197530864197530864199,298,-5.535558248652358
150,0.02777777777777777777777777779,300,0.16778359472733723
151,0.02814938271604938271604938272,302,-2.641488428260853
152,0.02852345679012345679012345679,304,0.7809059787130596
153,0.0289,306,0.1353227136439212
154,0.02927901234567901234567901234,308,-0.8370202842173925
155,0.02966049382716049382716049382,310,-1.4245883410895197
156,0.03004444444444444444444444443,312,-5.154443997921572
157,0.03043086419753086419753086418,314,0.28832266232033604
158,0.03081975308641975308641975310,316,3.3366869947644657
159,0.03121111111111111111111111112,318,1.063993793762075
160,0.03160493827160493827160493828,320,-1.041340817382796
161,0.03200123456790123456790123457,322,3.1724930299461214
162,0.0324,324,-0.8303239137819663
163,0.03280123456790123456790123456,326,0.2116138674472243
164,0.03320493827160493827160493826,328,-3.418650909492725
165,0.03361111111111111111111111110,330,-0.02377265645215735
166,0.03401975308641975308641975307,332,-2.062664236679403
167,0.03443086419753086419753086421,334,3.7335641914250766
168,0.03484444444444444444444444446,336,-1.3630457295069767
169,0.03526049382716049382716049384,338,0.16728837195506188
170,0.03567901234567901234567901235,340,1.3097996629184487
171,0.0361,342,1.6029336457886663
172,0.03652345679012345679012345679,344,5.189749854985882
173,0.03694938271604938271604938271,346,0.9196434612557356
174,0.03737777777777777777777777776,348,3.7184334982534333
175,0.03780864197530864197530864196,350,3.4460644517234944
176,0.03824197530864197530864197533,352,-1.4697162186148
177,0.03867777777777777777777777779,354,1.8383372405119967
178,0.03911604938271604938271604939,356,-1.6841247746465557
179,0.03955679012345679012345679013,358,1.109780999423213
180,0.04,360,0.13648307473793406
181,0.04044567901234567901234567901,362,-2.9188498090801978
182,0.04089382716049382716049382715,364,3.254849859979307
183,0.04134444444444444444444444443,366,7.346361241080305
184,0.04179753086419753086419753085,368,-4.093463875996934
185,0.04225308641975308641975308644,370,-0.6296618836178778
186,0.04271111111111111111111111112,372,-7.092181500326502
187,0.04317160493827160493827160495,374,0.9004546906705386
188,0.04363456790123456790123456791,376,2.5484030082163978
189,0.0441,378,3.8632881503674015
190,0.04456790123456790123456790123,380,2.6498300967964057
191,0.04503827160493827160493827160,382,0.25439067120322584
192,0.04551111111111111111111111110,384,1.079044890410675
193,0.04598641975308641975308641973,386,0.8979232949894825
194,0.04646419753086419753086419755,388,-3.3709530039767523
195,0.04694444444444444444444444446,390,-1.4075104581125755
196,0.04742716049382716049382716050,392,2.846358886962065
197,0.04791234567901234567901234568,394,-0.12132146345685556
198,0.0484,396,-0.6884346300485403
199,0.04889012345679012345679012345,398,3.733596526404146
200,0.04938271604938271604938271604,400,1.5211942916576546
201,0.04987777777777777777777777776,402,-1.4871523377271867
202,0.05037530864197530864197530862,404,2.095299717994798
203,0.05087530864197530864197530866,406,-2.8588461270760703
204,0.05137777777777777777777777779,408,2.0286282412852006
205,0.05188271604938271604938271606,410,-3.4087507878642387
206,0.05239012345679012345679012346,412,5.826828123767879
207,0.0529,414,1.6143610849657637
208,0.05341234567901234567901234567,416,-4.47874998058377
209,0.05392716049382716049382716048,418,-6.136757589929971
210,0.05444444444444444444444444443,420,1.0974478272132038
211,0.05496419753086419753086419751,422,0.3761013585655466
212,0.05548641975308641975308641977,424,-5.8188818022939115
213,0.05601111111111111111111111113,426,-0.7253270327963606
214,0.05653827160493827160493827162,428,-0.1101414954626973
215,0.05706790123456790123456790124,430,3.9981116221309554
216,0.0576,432,-3.619968632218456
217,0.05813456790123456790123456790,434,-3.08282704308629
218,0.05867160493827160493827160493,436,0.6231358438935312
219,0.05921111111111111111111111109,438,-3.2139887168395975
220,0.05975308641975308641975308640,440,-2.306504299830363
221,0.06029753086419753086419753089,442,-1.8988257855141397
222,0.06084444444444444444444444446,444,-0.19429020991640947
223,0.06139382716049382716049382717,446,1.1488517770003444
224,0.06194567901234567901234567902,448,-3.1931649271165727
225,0.0625,450,7.537345442774093
226,0.06305679012345679012345679012,452,-2.244183744687963
227,0.06361604938271604938271604937,454,0.34967622923556946
228,0.06417777777777777777777777776,456,-2.461598521336088
229,0.06474197530864197530864197529,458,4.618331820629655
230,0.06530864197530864197530864200,460,1.2460845868154768
231,0.06587777777777777777777777779,462,2.4134486755489974
232,0.06644938271604938271604938273,464,-2.0697736461590392
233,0.06702345679012345679012345680,466,1.1453690477489344
234,0.0676,468,-1.9921200743500063
235,0.06817901234567901234567901234,470,-5.344870789771716
236,0.06876049382716049382716049382,472,-3.295805756771029
237,0.06934444444444444444444444443,474,4.040630030217343
238,0.06993086419753086419753086417,476,-0.99742732757307
239,0.07051975308641975308641975311,478,-1.0417190091347053
240,0.07111111111111111111111111113,480,-4.5073051152808
241,0.07170493827160493827160493828,482,1.681003343266841
242,0.07230123456790123456790123457,484,2.619519453695347
243,0.0729,486,1.606123403103392
244,0.07350123456790123456790123456,488,-0.3176567631890649
245,0.07410493827160493827160493826,490,2.562840282661038
246,0.07471111111111111111111111109,492,2.8739144727934356
247,0.07531975308641975308641975306,494,-5.280280001943732
248,0.07593086419753086419753086422,496,4.022217151207174
249,0.07654444444444444444444444446,498,-3.7846271794023774
250,0.07716049382716049382716049384,500,1.3766055336172398
251,0.07777901234567901234567901235,502,-1.583086486820608
252,0.0784,504,-1.0034663489780689
253,0.07902345679012345679012345678,506,0.33609761156370094
254,0.07964938271604938271604938270,508,3.0784382177727263
255,0.08027777777777777777777777776,510,-4.7371940830338914
256,0.08090864197530864197530864195,512,-1.2615102130435323
257,0.08154197530864197530864197533,514,-6.5114724231275485
258,0.08217777777777777777777777780,516,-0.28664183905785007
259,0.08281604938271604938271604940,518,2.4586824581354967
260,0.08345679012345679012345679013,520,2.167125918556151
261,0.0841,522,-0.031034242504461695
262,0.08474567901234567901234567901,524,-0.02081061811380652
263,0.08539382716049382716049382715,526,-0.8785154360563341
264,0.08604444444444444444444444442,528,-1.3063477130348333
265,0.08669753086419753086419753084,530,2.97958388886446
266,0.08735308641975308641975308645,532,-0.8303215382644936
267,0.08801111111111111111111111113,534,0.018059261386421294
268,0.08867160493827160493827160495,536,-0.7812962985616502
269,0.08933456790123456790123456791,538,3.26352757631968
270,0.09,540,0.7868209454040895
271,0.09066790123456790123456790123,542,-2.3222022100968673
272,0.09133827160493827160493827159,544,-0.6788721945882691
273,0.09201111111111111111111111109,546,-2.108622563851542
274,0.09268641975308641975308641973,548,-2.690373596075221
275,0.09336419753086419753086419756,550,1.321189961114443
276,0.09404444444444444444444444446,552,-6.10742074915398
277,0.09472716049382716049382716051,554,-0.7630041156079481
278,0.09541234567901234567901234569,556,-0.77205277418986
279,0.0961,558,-3.4435834866223853
280,0.09679012345679012345679012345,560,0.34096686283652083
281,0.09748271604938271604938271604,562,-0.4821649399373776
282,0.09817777777777777777777777776,564,-2.1907499581298633
283,0.09887530864197530864197530861,566,-0.5347155326838572
284,0.09957530864197530864197530867,568,2.3747728619472
285,0.1002777777777777777777777778,570,-2.4661472393587744
286,0.1009827160493827160493827161,572,-0.6756055231176392
287,0.1016901234567901234567901235,574,2.0941107555823653
288,0.1024,576,-2.8286384197091503
289,0.1031123456790123456790123457,578,0.03711739917196728
290,0.1038271604938271604938271605,580,-1.4077658906543666
291,0.1045444444444444444444444444,582,0.3358375166251607
292,0.1052641975308641975308641975,584,2.4078604144143094
293,0.1059864197530864197530864198,586,3.3396912387534043
294,0.1067111111111111111111111111,588,3.2685880535733465
295,0.1074382716049382716049382716,590,0.30047320850111503
296,0.1081679012345679012345679012,592,-3.1197016214247593
297,0.1089,594,1.8020860495452327
298,0.1096345679012345679012345679,596,4.346745573244197
299,0.1103716049382716049382716049,598,-0.98432959989201
300,0.1111111111111111111111111111,600,-5.052479539811646
301,0.1118530864197530864197530864,602,-1.1875732037629105
302,0.1125975308641975308641975309,604,-0.6047912821225905
303,0.1133444444444444444444444445,606,-3.6971045439262507
304,0.1140938271604938271604938272,608,-2.360728580325647
305,0.1148456790123456790123456790,610,-2.9115863217814875
306,0.1156,612,0.16020312322801575
307,0.1163567901234567901234567901,614,1.991916291995578
308,0.1171160493827160493827160494,616,-0.2835949389016633
309,0.1178777777777777777777777778,618,2.636173188817536
310,0.1186419753086419753086419753,620,-0.6422062528111028
311,0.1194086419753086419753086420,622,1.7268353616159668
312,0.1201777777777777777777777778,624,-4.040807780528396
313,0.1209493827160493827160493827,626,-0.5442079557819643
314,0.1217234567901234567901234568,628,-1.3571984286767493
315,0.1225,630,-2.190324267095509
316,0.1232790123456790123456790123,632,2.9330711533672114
317,0.1240604938271604938271604938,634,3.159395050797288
318,0.1248444444444444444444444444,636,1.2803554661313006
319,0.1256308641975308641975308642,638,-4.841627772067208
320,0.1264197530864197530864197531,640,-1.527974519508663
321,0.1272111111111111111111111111,642,-1.373323479787753
322,0.1280049382716049382716049383,644,-0.8902939687036032
323,0.1288012345679012345679012346,646,-3.0693128399623566
324,0.1296,648,0.035581536734206685
325,0.1304012345679012345679012346,650,1.7913422693737948
326,0.1312049382716049382716049383,652,-0.13841431279904137
327,0.1320111111111111111111111111,654,1.7072751913459416
328,0.1328197530864197530864197531,656,-0.956387608838227
329,0.1336308641975308641975308642,658,4.2937754917177235
330,0.1344444444444444444444444445,660,4.691097214404895
331,0.1352604938271604938271604938,662,1.5473479017152045
332,0.1360790123456790123456790124,664,-0.8546540248603467
333,0.1369,666,-1.2281351185469416
334,0.1377234567901234567901234568,668,1.2794151265253961
335,0.1385493827160493827160493827,670,-3.1680253986526243
336,0.1393777777777777777777777778,672,0.4280340382823001
337,0.1402086419753086419753086419,674,-4.761155303053492
338,0.1410419753086419753086419753,676,-0.07232735432557627
339,0.1418777777777777777777777778,678,-6.020594404544339
340,0.1427160493827160493827160494,680,-1.493949460053905
341,0.1435567901234567901234567901,682,0.9715561520214346
342,0.1444,684,-2.155928812209077
343,0.1452456790123456790123456790,686,-0.644222820463144
344,0.1460938271604938271604938271,688,3.2438125102353723
345,0.1469444444444444444444444444,690,2.1769208937194238
346,0.1477975308641975308641975308,692,0.21957619113701152
347,0.1486530864197530864197530865,694,-0.2757738927997703
348,0.1495111111111111111111111111,696,-1.6940726455854211
349,0.1503716049382716049382716050,698,-1.806964699573351
350,0.1512345679012345679012345679,700,-2.1263023231739404
351,0.1521,702,1.8843530643546802
352,0.1529679012345679012345679012,704,2.7540540654417547
353,0.1538382716049382716049382716,706,2.00161753327961
354,0.1547111111111111111111111111,708,1.0864134432088481
355,0.1555864197530864197530864197,710,1.5861697206010854
