,Mass (amu),Time (microseconds),Amplitude
0,0,0,2.747462365493044
1,0.000001234567901234567901234567901,2,1.5658739989741293
2,0.000004938271604938271604938271604,4,0.6958922445255175
3,0.00001111111111111111111111111111,6,-0.09694419517933901
4,0.00001975308641975308641975308642,8,-0.4294487395560734
5,0.00003086419753086419753086419754,10,-1.0213554981098882
6,0.00004444444444444444444444444445,12,0.520862862443699
7,0.00006049382716049382716049382716,14,-3.2211898283313616
8,0.00007901234567901234567901234568,16,0.6496720899238376
9,0.0001,18,-1.0821155580588822
10,0.0001234567901234567901234567901,20,-3.1794892323936157
11,0.0001493827160493827160493827160,22,4.978367640958231
12,0.0001777777777777777777777777777,24,0.7669276026255307
13,0.0002086419753086419753086419752,26,2.486050734585922
14,0.0002419753086419753086419753088,28,-3.9783517490995037
15,0.0002777777777777777777777777779,30,1.9810759553403887
16,0.0003160493827160493827160493828,32,1.516666288791118
17,0.0003567901234567901234567901235,34,0.5264784891006749
18,0.0004,36,-0.27103175616800296
19,0.0004456790123456790123456790123,38,2.5804303655938443
20,0.0004938271604938271604938271604,40,-1.7993352351486902
21,0.0005444444444444444444444444443,42,1.2642874719749226
22,0.0005975308641975308641975308640,44,3.0802985472128923
23,0.0006530864197530864197530864200,46,0.3559839453350468
24,0.0007111111111111111111111111113,48,0.41396809660620726
25,0.0007716049382716049382716049384,50,-0.6228074200241493
26,0.0008345679012345679012345679013,52,3.0770531352487294
27,0.0009,54,-2.247484781393122
28,0.0009679012345679012345679012345,56,3.7007645660232815
29,0.001038271604938271604938271605,58,2.1362881434190486
30,0.001111111111111111111111111111,60,-4.185356265660711
31,0.001186419753086419753086419753,62,1.2741333137981987
32,0.001264197530864197530864197531,64,-1.5753850460291445
33,0.001344444444444444444444444445,66,-0.16771818066680586
34,0.001427160493827160493827160494,68,1.6557838809770942
35,0.001512345679012345679012345679,70,-1.3667911275854083
36,0.0016,72,-1.6636374224789632
37,0.001690123456790123456790123457,74,0.30288540663263697
38,0.001782716049382716049382716049,76,-2.148094714250583
39,0.001877777777777777777777777777,78,-0.6483380434702365
40,0.001975308641975308641975308642,80,0.3172404452874111
41,0.002075308641975308641975308642,82,-2.0822970688483022
42,0.002177777777777777777777777778,84,3.4542789624007217
43,0.002282716049382716049382716050,86,0.7766755140657644
44,0.002390123456790123456790123457,88,0.5918091447192941
45,0.0025,90,1.3218529101398342
46,0.002612345679012345679012345679,92,1.0773539817634834
47,0.002727160493827160493827160494,94,0.23808785292823298
48,0.002844444444444444444444444444,96,0.7233227509473525
49,0.002964197530864197530864197530,98,-1.3606572589751755
50,0.003086419753086419753086419754,100,0.6902274222576583
51,0.003211111111111111111111111111,102,2.6084019702941026
52,0.003338271604938271604938271605,104,-0.7871684906638832
53,0.003467901234567901234567901235,106,0.8765258982519946
54,0.0036,108,-7.703564242118045
55,0.003734567901234567901234567901,110,-3.7430237266675492
56,0.003871604938271604938271604938,112,0.4967434279023568
57,0.004011111111111111111111111111,114,-1.0160261438120137
58,0.004153086419753086419753086419,116,-4.59096641857011
59,0.004297530864197530864197530865,118,1.4822219971300363
60,0.004444444444444444444444444445,120,1.0829813460652544
61,0.004593827160493827160493827161,122,0.8032752811451982
62,0.004745679012345679012345679012,124,2.834554201528999
63,0.0049,126,0.6860643711535452
64,0.005056790123456790123456790123,128,-1.817500226237626
65,0.005216049382716049382716049382,130,-1.6673818943001557
66,0.005377777777777777777777777777,132,1.5922639218180146
67,0.005541975308641975308641975308,134,-0.45170628250329
68,0.005708641975308641975308641976,136,-1.6750173325965254
69,0.005877777777777777777777777778,138,2.6782345402926007
70,0.006049382716049382716049382716,140,3.956841700587268
71,0.006223456790123456790123456790,142,2.5014966573863617
72,0.0064,144,-1.096880496385294
73,0.006579012345679012345679012345,146,-1.8874410470486487
74,0.006760493827160493827160493827,148,-2.706197421652796
75,0.006944444444444444444444444444,150,2.5341739851789935
76,0.007130864197530864197530864197,152,-2.7466643297151037
77,0.007319753086419753086419753087,154,-1.8262240820338065
78,0.007511111111111111111111111112,156,-0.20167557332121847
79,0.007704938271604938271604938272,158,0.19077711176269962
80,0.007901234567901234567901234568,160,0.39352825688910503
81,0.0081,162,-4.165350890644939
82,0.008301234567901234567901234568,164,-1.1009867457681397
83,0.008504938271604938271604938271,166,5.1175325717168665
84,0.008711111111111111111111111110,168,0.7745311418468688
85,0.008919753086419753086419753086,170,0.8228030894786336
86,0.009130864197530864197530864198,172,-0.634489377335677
87,0.009344444444444444444444444445,174,-3.328525392159327
88,0.009560493827160493827160493828,176,-0.6872584922283748
89,0.009779012345679012345679012346,178,-1.4856878205947712
90,0.01,180,-0.2931657689467787
91,0.01022345679012345679012345679,182,2.456589612074263
92,0.01044938271604938271604938271,184,1.6710104195372006
93,0.01067777777777777777777777777,186,-2.271365962793107
94,0.01090864197530864197530864197,188,-0.43034927497657444
95,0.01114197530864197530864197532,190,0.5237186052731871
96,0.01137777777777777777777777778,192,0.5435142297571842
97,0.01161604938271604938271604939,194,-1.9099719098787258
98,0.01185679012345679012345679013,196,1.4102783728316208
99,0.0121,198,-0.7916466591567647
100,0.01234567901234567901234567901,200,1.632071136106922
101,0.01259382716049382716049382716,202,-0.27612193543526875
102,0.01284444444444444444444444444,204,3.436591758366394
103,0.01309753086419753086419753085,206,-0.3951816245837802
104,0.01335308641975308641975308643,208,2.318589141549343
105,0.01361111111111111111111111112,210,0.7946536021417533
106,0.01387160493827160493827160494,212,1.4409358256452185
107,0.01413456790123456790123456790,214,4.726971394345248
108,0.0144,216,0.9904098144249351
109,0.01466790123456790123456790123,218,-4.285956249839349
110,0.01493827160493827160493827160,220,-0.648053468877123
111,0.01521111111111111111111111110,222,2.4316685227648667
112,0.01548641975308641975308641974,224,0.13022089384236354
113,0.01576419753086419753086419754,226,-4.708258685886695
114,0.01604444444444444444444444445,228,-0.5598195621061846
115,0.01632716049382716049382716050,230,2.225117922262178
116,0.01661234567901234567901234568,232,1.4992712646470532
117,0.0169,234,-0.8075481232583422
118,0.01719012345679012345679012345,236,0.9822817755248077
119,0.01748271604938271604938271604,238,-4.502620403121778
120,0.01777777777777777777777777777,240,-0.45465109537749093
121,0.01807530864197530864197530863,242,3.009886693947379
122,0.01837530864197530864197530865,244,-2.6805316421270424
123,0.01867777777777777777777777779,246,2.9544966142607434
124,0.01898271604938271604938271606,248,1.5582597352893879
125,0.01929012345679012345679012346,250,-4.111364180637143
126,0.0196,252,-0.12477027451954296
127,0.01991234567901234567901234568,254,-2.9106954289125264
128,0.02022716049382716049382716049,256,-0.8020142776956262
129,0.02054444444444444444444444443,258,0.3552377451439389
130,0.02086419753086419753086419752,260,-2.35795039096228
131,0.02118641975308641975308641977,262,-3.878134325000401
132,0.02151111111111111111111111112,264,4.676299095625008
133,0.02183827160493827160493827161,266,-1.1255726212954464
134,0.02216790123456790123456790124,268,2.5192470580551958
135,0.0225,270,-1.969688778679325
136,0.02283456790123456790123456790,272,0.2983506001901365
137,0.02317160493827160493827160493,274,1.178536374082801
138,0.02351111111111111111111111110,276,1.6484919017131485
139,0.02385308641975308641975308641,278,-0.9690985491528911
140,0.02419753086419753086419753088,280,-2.6753839674867828
141,0.02454444444444444444444444445,282,2.7580595152350997
142,0.02489382716049382716049382717,284,-0.7716418460480201
143,0.02524567901234567901234567902,286,0.38573916621554133
144,0.0256,288,-1.7288535898619115
145,0.02595679012345679012345679012,290,-2.4897830803024315
146,0.02631604938271604938271604938,292,1.9840488531998288
147,0.02667777777777777777777777777,294,-2.3006941048574614
148,0.02704197530864197530864197529,296,3.1023528116216377
149,0.02740864197530864197530864199,298,-0.032347040375939606
150,0.02777777777777777777777777779,300,-2.9062203665805955
151,0.02814938271604938271604938272,302,-0.1295658828459468
152,0.02852345679012345679012345679,304,0.48277437381169175
153,0.0289,306,-0.20773390831577226
154,0.02927901234567901234567901234,308,3.207706496328099
155,0.02966049382716049382716049382,310,2.1391910891672445
156,0.03004444444444444444444444443,312,1.837567876614456
157,0.03043086419753086419753086418,314,1.7763834933889402
158,0.03081975308641975308641975310,316,-4.759511952036756
159,0.03121111111111111111111111112,318,1.1583849617516504
160,0.03160493827160493827160493828,320,-5.5024178676155415
161,0.03200123456790123456790123457,322,1.6173307472016492
162,0.0324,324,-7.0978413932141295
163,0.03280123456790123456790123456,326,-0.27296635559095606
164,0.03320493827160493827160493826,328,0.710304705676645
165,0.03361111111111111111111111110,330,-2.351050592858366
166,0.03401975308641975308641975307,332,-1.1875262186810724
167,0.03443086419753086419753086421,334,-0.6554684984894484
168,0.03484444444444444444444444446,336,2.997898824821452
169,0.03526049382716049382716049384,338,-0.18589951357970524
170,0.03567901234567901234567901235,340,-0.376702523002248
171,0.0361,342,4.849632123860465
172,0.03652345679012345679012345679,344,-0.23469812165162152
173,0.03694938271604938271604938271,346,-7.390113805506614
174,0.03737777777777777777777777776,348,0.019216766232191287
175,0.03780864197530864197530864196,350,-0.41151500783373945
176,0.03824197530864197530864197533,352,1.656515744126901
177,0.03867777777777777777777777779,354,2.196483748913907
178,0.03911604938271604938271604939,356,-0.4112914509726344
179,0.03955679012345679012345679013,358,0.7859757125103854
180,0.04,360,-3.7553651934529104
181,0.04044567901234567901234567901,362,0.27471100113100366
182,0.04089382716049382716049382715,364,-2.0598387516280585
183,0.04134444444444444444444444443,366,-4.0720346068506235
184,0.04179753086419753086419753085,368,1.4280759559037657
185,0.04225308641975308641975308644,370,0.6680397047757548
186,0.04271111111111111111111111112,372,2.738055484442855
187,0.04317160493827160493827160495,374,1.7605871243568672
188,0.04363456790123456790123456791,376,-6.110275413460247
189,0.0441,378,0.9567273200895093
190,0.04456790123456790123456790123,380,-4.411546591792653
191,0.04503827160493827160493827160,382,-1.405830292009556
192,0.04551111111111111111111111110,384,0.8905414925976907
193,0.04598641975308641975308641973,386,-1.6668498427017786
194,0.04646419753086419753086419755,388,0.569624849862529
195,0.04694444444444444444444444446,390,1.8054993653940397
196,0.04742716049382716049382716050,392,-0.6765232481743204
197,0.04791234567901234567901234568,394,3.5753602232741994
198,0.0484,396,0.1805540176077058
199,0.04889012345679012345679012345,398,-3.7186896581041373
200,0.04938271604938271604938271604,400,-1.420506287802575
201,0.04987777777777777777777777776,402,-2.8973206235585627
202,0.05037530864197530864197530862,404,-2.044347547420009
203,0.05087530864197530864197530866,406,3.098143008480267
204,0.05137777777777777777777777779,408,-1.021235654527442
205,0.05188271604938271604938271606,410,0.6229642835491018
206,0.05239012345679012345679012346,412,0.7817469951738961
207,0.0529,414,-0.8949134865761093
208,0.05341234567901234567901234567,416,0.979676708666214
209,0.05392716049382716049382716048,418,-2.2474847813931214
210,0.05444444444444444444444444443,420,-1.586348406589421
211,0.05496419753086419753086419751,422,-0.977922830619016
212,0.05548641975308641975308641977,424,-2.168362516257165
213,0.05601111111111111111111111113,426,-0.7976331763923652
214,0.05653827160493827160493827162,428,-0.2897471712449465
215,0.05706790123456790123456790124,430,-1.7584328200294055
216,0.0576,432,-2.3865322889133576
217,0.05813456790123456790123456790,434,1.1878959376295952
218,0.05867160493827160493827160493,436,-2.198864699279309
219,0.05921111111111111111111111109,438,-0.3325894425637146
220,0.05975308641975308641975308640,440,1.9962083580630536
221,0.06029753086419753086419753089,442,6.042511159267244
222,0.06084444444444444444444444446,444,-1.0902192106669988
223,0.06139382716049382716049382717,446,0.3099544634960951
224,0.06194567901234567901234567902,448,-0.6509042361632849
225,0.0625,450,0.09687528314511458
226,0.06305679012345679012345679012,452,2.7212995884862243
227,0.06361604938271604938271604937,454,-1.7010127946824105
228,0.06417777777777777777777777776,456,-0.6720240345249471
229,0.06474197530864197530864197529,458,-4.4859818074956745
230,0.06530864197530864197530864200,460,-0.3920037659194166
231,0.06587777777777777777777777779,462,-0.3764281554808634
232,0.06644938271604938271604938273,464,-2.5453180218158966
233,0.06702345679012345679012345680,466,-0.6868482726530466
234,0.0676,468,-0.5803263511048499
235,0.06817901234567901234567901234,470,-2.9435760355480807
236,0.06876049382716049382716049382,472,-1.335094492686308
237,0.06934444444444444444444444443,474,-3.9258142744082622
238,0.06993086419753086419753086417,476,-0.08167335794530306
239,0.07051975308641975308641975311,478,-0.5276795528232746
240,0.07111111111111111111111111113,480,2.7288386797763926
241,0.07170493827160493827160493828,482,-2.911041867356762
242,0.07230123456790123456790123457,484,4.037281674606011
243,0.0729,486,0.7422641547344733
244,0.07350123456790123456790123456,488,-5.193442323022294
245,0.07410493827160493827160493826,490,2.0733530688996655
246,0.07471111111111111111111111109,492,1.647456196797525
247,0.07531975308641975308641975306,494,-1.8531025765523375
248,0.07593086419753086419753086422,496,1.3953827242931465
249,0.07654444444444444444444444446,498,-0.9611754515685567
250,0.07716049382716049382716049384,500,-2.2975256762360186
251,0.07777901234567901234567901235,502,-0.5381715717604499
252,0.0784,504,-1.6573948563080192
253,0.07902345679012345679012345678,506,-2.20194485180071
254,0.07964938271604938271604938270,508,-0.9093128767477724
255,0.08027777777777777777777777776,510,1.6223096638733303
256,0.08090864197530864197530864195,512,-0.861030014160951
257,0.08154197530864197530864197533,514,-2.3159773847940652
258,0.08217777777777777777777777780,516,-1.214700736662143
259,0.08281604938271604938271604940,518,3.279145198829805
260,0.08345679012345679012345679013,520,1.3926339828316858
261,0.0841,522,-3.5846643008834076
262,0.08474567901234567901234567901,524,2.464846063395078
263,0.08539382716049382716049382715,526,2.33061286934023
264,0.08604444444444444444444444442,528,4.437255648508572
265,0.08669753086419753086419753084,530,2.0363570303253984
266,0.08735308641975308641975308645,532,1.1554560375374636
267,0.08801111111111111111111111113,534,-1.094669443115695
268,0.08867160493827160493827160495,536,-0.2721327067993804
269,0.08933456790123456790123456791,538,1.1345678344937566
270,0.09,540,-4.1746939467828295
271,0.09066790123456790123456790123,542,-2.47941237117208
272,0.09133827160493827160493827159,544,1.5470012620735083
273,0.09201111111111111111111111109,546,-1.228058375833038
274,0.09268641975308641975308641973,548,-2.7685131199729938
275,0.09336419753086419753086419756,550,-1.054992877832314
276,0.09404444444444444444444444446,552,-1.3491406073972865
277,0.09472716049382716049382716051,554,-1.391390740682726
278,0.09541234567901234567901234569,556,2.4787403133649555
279,0.0961,558,2.1371471126665282
280,0.09679012345679012345679012345,560,-1.8809188367770981
281,0.09748271604938271604938271604,562,-1.725313819656538
282,0.09817777777777777777777777776,564,0.6141447926900518
283,0.09887530864197530864197530861,566,-0.5850992091489583
284,0.09957530864197530864197530867,568,-1.9645171837002513
285,0.1002777777777777777777777778,570,-2.899991655099593
286,0.1009827160493827160493827161,572,-3.3943075095989803
287,0.1016901234567901234567901235,574,0.4955918372594057
288,0.1024,576,3.0534464876501852
289,0.1031123456790123456790123457,578,0.8368925864041289
290,0.1038271604938271604938271605,580,0.6032594626528847
291,0.1045444444444444444444444444,582,-2.8702008894250337
292,0.1052641975308641975308641975,584,1.50590419253218
293,0.1059864197530864197530864198,586,2.3849366102349494
294,0.1067111111111111111111111111,588,-3.0048904466277566
295,0.1074382716049382716049382716,590,-3.7184540369061714
296,0.1081679012345679012345679012,592,-3.8555704227026952
297,0.1089,594,3.3163837986272218
298,0.1096345679012345679012345679,596,-2.72158352614471
299,0.1103716049382716049382716049,598,1.6959879158910272
300,0.1111111111111111111111111111,600,-1.2900792241339079
301,0.1118530864197530864197530864,602,-2.8378661308690676
302,0.1125975308641975308641975309,604,0.49268320751023664
303,0.1133444444444444444444444445,606,-1.689910337620423
304,0.1140938271604938271604938272,608,0.21825711948067855
305,0.1148456790123456790123456790,610,1.8692676811065605
306,0.1156,612,4.08553162200749
307,0.1163567901234567901234567901,614,1.7694777413405918
308,0.1171160493827160493827160494,616,0.865150637465826
309,0.1178777777777777777777777778,618,-2.6341454986079134
310,0.1186419753086419753086419753,620,1.2012930306556908
311,0.1194086419753086419753086420,622,2.475325618491028
312,0.1201777777777777777777777778,624,-0.4283206893142525
313,0.1209493827160493827160493827,626,-0.0995939781523062
314,0.1217234567901234567901234568,628,-1.787402112794487
315,0.1225,630,-2.35795039096228
316,0.1232790123456790123456790123,632,2.332347046542029
317,0.1240604938271604938271604938,634,0.06790367220607244
318,0.1248444444444444444444444444,636,0.009961850314399594
319,0.1256308641975308641975308642,638,3.4310308073230353
320,0.1264197530864197530864197531,640,1.2904192242483246
321,0.1272111111111111111111111111,642,2.1794932127743447
322,0.1280049382716049382716049383,644,1.1975502153000888
323,0.1288012345679012345679012346,646,-2.45018837436521
324,0.1296,648,1.9224619135017542
325,0.1304012345679012345679012346,650,4.123742838800647
326,0.1312049382716049382716049383,652,2.3911318357045976
327,0.1320111111111111111111111111,654,-0.48978912862173957
328,0.1328197530864197530864197531,656,-0.14687683687742134
329,0.1336308641975308641975308642,658,1.4567201564989156
330,0.1344444444444444444444444445,660,2.099766761420255
331,0.1352604938271604938271604938,662,-0.01605234073628173
332,0.1360790123456790123456790124,664,2.60656605790038
333,0.1369,666,2.9990846960972766
334,0.1377234567901234567901234568,668,-1.2122418716098045
335,0.1385493827160493827160493827,670,3.325266905555566
336,0.1393777777777777777777777778,672,0.5242064471088497
337,0.1402086419753086419753086419,674,-3.5818723595278206
338,0.1410419753086419753086419753,676,3.0126553237272535
339,0.1418777777777777777777777778,678,-1.2353574781379855
340,0.1427160493827160493827160494,680,3.618321896624819
341,0.1435567901234567901234567901,682,-1.5945214755013712
342,0.1444,684,2.498499640845478
343,0.1452456790123456790123456790,686,0.1750256050114011
344,0.1460938271604938271604938271,688,0.3869504987459851
345,0.1469444444444444444444444444,690,-3.221674673837282
346,0.1477975308641975308641975308,692,-5.821881232559994
347,0.1486530864197530864197530865,694,-2.1926695556320452
348,0.1495111111111111111111111111,696,1.1286878776655969
349,0.1503716049382716049382716050,698,-4.765936595634107
350,0.1512345679012345679012345679,700,0.5459156227573346
351,0.1521,702,-0.2742512413672699
352,0.1529679012345679012345679012,704,-0.24417860716888806
353,0.1538382716049382716049382716,706,1.295309332122773
354,0.1547111111111111111111111111,708,1.776146541645847
