,Mass (amu),Time (microseconds),Amplitude
0,0,0,-2.6276192019885585
1,0.000001234567901234567901234567901,2,2.878861933719736
2,0.000004938271604938271604938271604,4,1.2904930136286996
3,0.00001111111111111111111111111111,6,-3.5154995347810916
4,0.00001975308641975308641975308642,8,0.6911719295880152
5,0.00003086419753086419753086419754,10,1.761790038962584
6,0.00004444444444444444444444444445,12,-0.4219183468419896
7,0.00006049382716049382716049382716,14,2.2732006754926446
8,0.00007901234567901234567901234568,16,1.9321883257513677
9,0.0001,18,-1.0463099789257782
10,0.0001234567901234567901234567901,20,-1.6298138986229802
11,0.0001493827160493827160493827160,22,-2.3488488894090587
12,0.0001777777777777777777777777777,24,-5.258293339080211
13,0.0002086419753086419753086419752,26,-0.6209842855983857
14,0.0002419753086419753086419753088,28,1.0603827040584328
15,0.0002777777777777777777777777779,30,0.8947140395168892
16,0.0003160493827160493827160493828,32,-2.72941448973988
17,0.0003567901234567901234567901235,34,0.8652921647057417
18,0.0004,36,-0.3560218456921551
19,0.0004456790123456790123456790123,38,0.17758725855156168
20,0.0004938271604938271604938271604,40,-4.371219399859854
21,0.0005444444444444444444444444443,42,0.9021269461527383
22,0.0005975308641975308641975308640,44,-0.5991604903589665
23,0.0006530864197530864197530864200,46,4.0263294746820275
24,0.0007111111111111111111111111113,48,-1.8275407960958812
25,0.0007716049382716049382716049384,50,-2.0089639633939727
26,0.0008345679012345679012345679013,52,0.6630264506445332
27,0.0009,54,2.7385449413095646
28,0.0009679012345679012345679012345,56,1.070285477668253
29,0.001038271604938271604938271605,58,-1.3578967223419611
30,0.001111111111111111111111111111,60,1.7423705211307565
31,0.001186419753086419753086419753,62,0.24351222306924677
32,0.001264197530864197530864197531,64,-1.8936371126554468
33,0.001344444444444444444444444445,66,-2.278588482218465
34,0.001427160493827160493827160494,68,0.9269945590232763
35,0.001512345679012345679012345679,70,-2.5456182501401847
36,0.0016,72,-0.8562024439059276
37,0.001690123456790123456790123457,74,-0.9681419015933946
38,0.001782716049382716049382716049,76,0.4188905776865807
39,0.001877777777777777777777777777,78,-0.22821231492046562
40,0.001975308641975308641975308642,80,1.294837050593149
41,0.002075308641975308641975308642,82,1.2489858948983792
42,0.002177777777777777777777777778,84,-0.7488002396364696
43,0.002282716049382716049382716050,86,-3.4130025874023016
44,0.002390123456790123456790123457,88,0.05484508373821368
45,0.0025,90,-0.15033021549381326
46,0.002612345679012345679012345679,92,-1.5734813847789504
47,0.002727160493827160493827160494,94,-1.8166413676140556
48,0.002844444444444444444444444444,96,-4.626164135801668
49,0.002964197530864197530864197530,98,3.19530722447542
50,0.003086419753086419753086419754,100,-0.9505961498097234
51,0.003211111111111111111111111111,102,2.4032051506917425
52,0.003338271604938271604938271605,104,3.670698307799798
53,0.003467901234567901234567901235,106,-4.749255703242067
54,0.0036,108,-4.018955699027275
55,0.003734567901234567901234567901,110,-0.49241375367324913
56,0.003871604938271604938271604938,112,1.7107619268346141
57,0.004011111111111111111111111111,114,2.478440367061565
58,0.004153086419753086419753086419,116,-1.978315896985741
59,0.004297530864197530864197530865,118,5.50799308225206
60,0.004444444444444444444444444445,120,2.202584431560699
61,0.004593827160493827160493827161,122,3.0304610106148204
62,0.004745679012345679012345679012,124,-2.785721842962602
63,0.0049,126,0.7460449684081549
64,0.005056790123456790123456790123,128,-1.6579863827682526
65,0.005216049382716049382716049382,130,-0.7949492074491101
66,0.005377777777777777777777777777,132,1.4440673765721745
67,0.005541975308641975308641975308,134,0.6817842699477903
68,0.005708641975308641975308641976,136,-0.8644133298417571
69,0.005877777777777777777777777778,138,0.24255719570527792
70,0.006049382716049382716049382716,140,-0.33485798834931935
71,0.006223456790123456790123456790,142,-1.9452413755932652
72,0.0064,144,-0.18893692637985518
73,0.006579012345679012345679012345,146,3.2334975051613823
74,0.006760493827160493827160493827,148,-0.871908657904055
75,0.006944444444444444444444444444,150,-0.9352145272666297
76,0.007130864197530864197530864197,152,-2.0002209399527624
77,0.007319753086419753086419753087,154,-4.130959752083067
78,0.007511111111111111111111111112,156,1.770812769908355
79,0.007704938271604938271604938272,158,2.038829723500117
80,0.007901234567901234567901234568,160,-0.99639540569757
81,0.0081,162,1.0724038555076438
82,0.008301234567901234567901234568,164,2.6530882529094444
83,0.008504938271604938271604938271,166,-4.331847719718581
84,0.008711111111111111111111111110,168,-0.6911301936015388
85,0.008919753086419753086419753086,170,-2.682137113569807
86,0.009130864197530864197530864198,172,-1.6803212243652081
87,0.009344444444444444444444444445,174,1.002844347139114
88,0.009560493827160493827160493828,176,-0.5313771093476845
89,0.009779012345679012345679012346,178,0.6082737303960004
90,0.01,180,-2.6417515945230643
91,0.01022345679012345679012345679,182,-3.091882683110469
92,0.01044938271604938271604938271,184,0.52274239851028
93,0.01067777777777777777777777777,186,-2.1391383081375595
94,0.01090864197530864197530864197,188,1.36491454246543
95,0.01114197530864197530864197532,190,-2.9040504276574284
96,0.01137777777777777777777777778,192,-3.3375452592206756
97,0.01161604938271604938271604939,194,2.5272820280167467
98,0.01185679012345679012345679013,196,6.198539693679298
99,0.0121,198,3.189663029137212
100,0.01234567901234567901234567901,200,2.8108045234116736
101,0.01259382716049382716049382716,202,-2.7224548974598917
102,0.01284444444444444444444444444,204,-1.7699468981614357
103,0.01309753086419753086419753085,206,4.100354271107688
104,0.01335308641975308641975308643,208,-3.1687013557771544
105,0.01361111111111111111111111112,210,0.20330359781358082
106,0.01387160493827160493827160494,212,2.903623310905368
107,0.01413456790123456790123456790,214,-1.039174897430481
108,0.0144,216,-4.019968349690023
109,0.01466790123456790123456790123,218,0.9820669703806297
110,0.01493827160493827160493827160,220,2.2722007555170793
111,0.01521111111111111111111111110,222,1.672364474712616
112,0.01548641975308641975308641974,224,-3.532381290572458
113,0.01576419753086419753086419754,226,3.481678636408658
114,0.01604444444444444444444444445,228,1.2781532193340475
115,0.01632716049382716049382716050,230,-0.9772987354127997
116,0.01661234567901234567901234568,232,0.651997031837432
117,0.0169,234,0.530605567751501
118,0.01719012345679012345679012345,236,-0.03662315822875539
119,0.01748271604938271604938271604,238,-1.2260072502977355
120,0.01777777777777777777777777777,240,0.36271975471462564
121,0.01807530864197530864197530863,242,3.255514729465505
122,0.01837530864197530864197530865,244,-1.136565661396998
123,0.01867777777777777777777777779,246,-0.32204582790394753
124,0.01898271604938271604938271606,248,-1.1831363004634754
125,0.01929012345679012345679012346,250,1.7925468893860779
126,0.0196,252,0.8215380302547672
127,0.01991234567901234567901234568,254,0.03451552109545335
128,0.02022716049382716049382716049,256,0.11772363074537674
129,0.02054444444444444444444444443,258,0.7819809438039095
130,0.02086419753086419753086419752,260,-1.1472978367850257
131,0.02118641975308641975308641977,262,0.12158995229125477
132,0.02151111111111111111111111112,264,0.17821386385182755
133,0.02183827160493827160493827161,266,-0.03422229424574918
134,0.02216790123456790123456790124,268,0.8151026416939248
135,0.0225,270,1.328050131653465
136,0.02283456790123456790123456790,272,0.7967615934389863
137,0.02317160493827160493827160493,274,1.864998867235523
138,0.02351111111111111111111111110,276,-4.08036204374011
139,0.02385308641975308641975308641,278,-2.2604803932575317
140,0.02419753086419753086419753088,280,-2.080882236265392
141,0.02454444444444444444444444445,282,-0.06216772356332219
142,0.02489382716049382716049382717,284,-1.2502116827518488
143,0.02524567901234567901234567902,286,-0.0487974608530007
144,0.0256,288,-1.253610145540807
145,0.02595679012345679012345679012,290,0.4682242804675801
146,0.02631604938271604938271604938,292,-1.503152112752675
147,0.02667777777777777777777777777,294,0.746772656367495
148,0.02704197530864197530864197529,296,3.1487052539942004
149,0.02740864197530864197530864199,298,4.386563626184049
150,0.02777777777777777777777777779,300,0.5606749438065115
151,0.02814938271604938271604938272,302,0.6204325948610068
152,0.02852345679012345679012345679,304,-2.0202516083621678
153,0.0289,306,0.5237196587321877
154,0.02927901234567901234567901234,308,-1.7535972270320612
155,0.02966049382716049382716049382,310,-1.1070683850651166
156,0.03004444444444444444444444443,312,-2.4649779113622583
157,0.03043086419753086419753086418,314,2.878327422479503
158,0.03081975308641975308641975310,316,3.4186327833716375
159,0.03121111111111111111111111112,318,-2.056467129464787
160,0.03160493827160493827160493828,320,-1.4703521688098828
161,0.03200123456790123456790123457,322,1.6636908051797408
162,0.0324,324,-0.5553746004452879
163,0.03280123456790123456790123456,326,-3.5108045436417075
164,0.03320493827160493827160493826,328,-0.7629648104619988
165,0.03361111111111111111111111110,330,1.8545774841183846
166,0.03401975308641975308641975307,332,2.2248481531053
167,0.03443086419753086419753086421,334,2.208403691597315
168,0.03484444444444444444444444446,336,-5.7304632807414295
169,0.03526049382716049382716049384,338,-2.3014269448838096
170,0.03567901234567901234567901235,340,2.670331391176516
171,0.0361,342,-1.936778445590785
172,0.03652345679012345679012345679,344,-3.94377669504813
173,0.03694938271604938271604938271,346,-2.277319113861667
174,0.03737777777777777777777777776,348,3.673795702921353
175,0.03780864197530864197530864196,350,-2.7305577460880364
176,0.03824197530864197530864197533,352,0.6594070302965885
177,0.03867777777777777777777777779,354,-0.8717699273532975
178,0.03911604938271604938271604939,356,-3.677047126133424
179,0.03955679012345679012345679013,358,1.0450167817605553
180,0.04,360,-0.7070999935857466
181,0.04044567901234567901234567901,362,-0.8594792517522687
182,0.04089382716049382716049382715,364,0.28844391588094365
183,0.04134444444444444444444444443,366,1.6898201142693265
184,0.04179753086419753086419753085,368,-2.7364985278462317
185,0.04225308641975308641975308644,370,-3.93061800793418
186,0.04271111111111111111111111112,372,-1.6430760150855033
187,0.04317160493827160493827160495,374,1.0234477049281903
188,0.04363456790123456790123456791,376,1.7598820575308607
189,0.0441,378,0.13247486340706371
190,0.04456790123456790123456790123,380,0.42659918553109016
191,0.04503827160493827160493827160,382,3.642701367113242
192,0.04551111111111111111111111110,384,-0.055076232315712514
193,0.04598641975308641975308641973,386,1.302735649945006
194,0.04646419753086419753086419755,388,1.8560752461501455
195,0.04694444444444444444444444446,390,-0.5295701981025013
196,0.04742716049382716049382716050,392,-3.243676747800996
197,0.04791234567901234567901234568,394,0.2711139996089849
198,0.0484,396,-0.4991298829168623
199,0.04889012345679012345679012345,398,-1.382352195831652
200,0.04938271604938271604938271604,400,0.23660356097422547
201,0.04987777777777777777777777776,402,-0.8077838274014509
202,0.05037530864197530864197530862,404,1.1258945146890043
203,0.05087530864197530864197530866,406,-1.578839501304204
204,0.05137777777777777777777777779,408,-0.26652102515716963
205,0.05188271604938271604938271606,410,3.1139618658814388
206,0.05239012345679012345679012346,412,3.0330635700692747
207,0.0529,414,-2.250945006033316
208,0.05341234567901234567901234567,416,5.000385741190772
209,0.05392716049382716049382716048,418,0.8569963016344027
210,0.05444444444444444444444444443,420,2.1742258247068342
211,0.05496419753086419753086419751,422,0.4900751949559629
212,0.05548641975308641975308641977,424,-0.7876517042510098
213,0.05601111111111111111111111113,426,0.6716023042240133
214,0.05653827160493827160493827162,428,-4.296853400671613
215,0.05706790123456790123456790124,430,-1.1410346359101777
216,0.0576,432,1.686116285943299
217,0.05813456790123456790123456790,434,-0.5565758661365571
218,0.05867160493827160493827160493,436,0.2565759802902438
219,0.05921111111111111111111111109,438,1.0152863672332493
220,0.05975308641975308641975308640,440,-0.8555241678458886
221,0.06029753086419753086419753089,442,-4.926170294815546
222,0.06084444444444444444444444446,444,-5.343315757662362
223,0.06139382716049382716049382717,446,3.2184086969700902
224,0.06194567901234567901234567902,448,0.25000136155217206
225,0.0625,450,3.1510930532715324
226,0.06305679012345679012345679012,452,0.12264262447955254
227,0.06361604938271604938271604937,454,-0.08381461660981232
228,0.06417777777777777777777777776,456,4.326470424250997
229,0.06474197530864197530864197529,458,-4.535737777316789
230,0.06530864197530864197530864200,460,2.544603499549897
231,0.06587777777777777777777777779,462,-0.919500656233297
232,0.06644938271604938271604938273,464,0.18944423588960915
233,0.06702345679012345679012345680,466,-0.372724218970697
234,0.0676,468,0.4401233214783443
235,0.06817901234567901234567901234,470,-0.33239499966783376
236,0.06876049382716049382716049382,472,1.510485665465414
237,0.06934444444444444444444444443,474,2.9630846124175014
238,0.06993086419753086419753086417,476,-3.149545345992578
239,0.07051975308641975308641975311,478,1.9681755947482051
240,0.07111111111111111111111111113,480,-1.4833282551143327
241,0.07170493827160493827160493828,482,-1.179975580681257
242,0.07230123456790123456790123457,484,-3.603348395987037
243,0.0729,486,1.8273482000701076
244,0.07350123456790123456790123456,488,-3.526915008934916
245,0.07410493827160493827160493826,490,1.129988656688745
246,0.07471111111111111111111111109,492,-0.7058879026666265
247,0.07531975308641975308641975306,494,-2.0160792332016633
248,0.07593086419753086419753086422,496,1.5350899342215203
249,0.07654444444444444444444444446,498,-0.43226033119481233
250,0.07716049382716049382716049384,500,3.0008691586006107
251,0.07777901234567901234567901235,502,1.1582833640733485
252,0.0784,504,0.9848888723109519
253,0.07902345679012345679012345678,506,1.4433516087303577
254,0.07964938271604938271604938270,508,-0.7597102009238721
255,0.08027777777777777777777777776,510,4.165389425569306
256,0.08090864197530864197530864195,512,3.9041112093933896
257,0.08154197530864197530864197533,514,-1.282134785308117
258,0.08217777777777777777777777780,516,3.303262245176046
259,0.08281604938271604938271604940,518,0.4552598535483107
260,0.08345679012345679012345679013,520,0.1905050816848749
261,0.0841,522,-2.040293329418911
262,0.08474567901234567901234567901,524,0.34671287631539754
263,0.08539382716049382716049382715,526,1.574941739791773
264,0.08604444444444444444444444442,528,-0.3947146476201021
265,0.08669753086419753086419753084,530,2.3234676005808916
266,0.08735308641975308641975308645,532,-2.249860311364611
267,0.08801111111111111111111111113,534,-2.9753681226427
268,0.08867160493827160493827160495,536,-5.715895406604761
269,0.08933456790123456790123456791,538,2.6435051714379134
270,0.09,540,-0.014654636930513628
271,0.09066790123456790123456790123,542,0.7359597728860606
272,0.09133827160493827160493827159,544,3.1058508035794268
273,0.09201111111111111111111111109,546,-1.0400602288519192
274,0.09268641975308641975308641973,548,0.5821082251570181
275,0.09336419753086419753086419756,550,-1.4220234522988457
276,0.09404444444444444444444444446,552,0.06651926384607379
277,0.09472716049382716049382716051,554,-1.4149370525754221
278,0.09541234567901234567901234569,556,-2.62065617697116
279,0.0961,558,-1.9624421169869282
280,0.09679012345679012345679012345,560,2.1330252445747697
281,0.09748271604938271604938271604,562,-1.8113735316020738
282,0.09817777777777777777777777776,564,1.7014417718478225
283,0.09887530864197530864197530861,566,-4.0311164159491675
284,0.09957530864197530864197530867,568,0.14921657806229355
285,0.1002777777777777777777777778,570,-0.7417149881433562
286,0.1009827160493827160493827161,572,1.87066269434787
287,0.1016901234567901234567901235,574,-1.0778680535159884
288,0.1024,576,1.7459657726317783
289,0.1031123456790123456790123457,578,-0.8372591881403977
290,0.1038271604938271604938271605,580,2.6820328744402624
291,0.1045444444444444444444444444,582,-1.2845527789060096
292,0.1052641975308641975308641975,584,3.2688278637409645
293,0.1059864197530864197530864198,586,-2.6248916232274073
294,0.1067111111111111111111111111,588,-1.9707183090403368
295,0.1074382716049382716049382716,590,-2.9753681226427
296,0.1081679012345679012345679012,592,-0.3395119562064381
297,0.1089,594,0.10157905961879682
298,0.1096345679012345679012345679,596,5.053411743387099
299,0.1103716049382716049382716049,598,0.1192496206661557
300,0.1111111111111111111111111111,600,-0.7177792803572699
301,0.1118530864197530864197530864,602,-0.4269432749816552
302,0.1125975308641975308641975309,604,2.3462583277325746
303,0.1133444444444444444444444445,606,2.022038722915068
304,0.1140938271604938271604938272,608,-3.602651625055768
305,0.1148456790123456790123456790,610,-2.6280803700754345
306,0.1156,612,-5.186519957374588
307,0.1163567901234567901234567901,614,-2.6494632417299258
308,0.1171160493827160493827160494,616,1.847723572746485
309,0.1178777777777777777777777778,618,-0.3718051230373066
310,0.1186419753086419753086419753,620,-0.8039011488304145
311,0.1194086419753086419753086420,622,-2.846539043146367
312,0.1201777777777777777777777778,624,1.9036004078938997
313,0.1209493827160493827160493827,626,-1.567051714303133
314,0.1217234567901234567901234568,628,1.6351983527071992
315,0.1225,630,1.4005349104060585
316,0.1232790123456790123456790123,632,2.4260484945378504
317,0.1240604938271604938271604938,634,-2.3258208061947494
318,0.1248444444444444444444444444,636,3.7493221877443976
319,0.1256308641975308641975308642,638,0.9385564754746959
320,0.1264197530864197530864197531,640,1.4071908582689983
321,0.1272111111111111111111111111,642,0.16191605682915203
322,0.1280049382716049382716049383,644,1.8168347956023165
323,0.1288012345679012345679012346,646,0.5587864734347879
324,0.1296,648,-0.2972072779321255
325,0.1304012345679012345679012346,650,3.180185393011068
326,0.1312049382716049382716049383,652,-1.1503115017442203
327,0.1320111111111111111111111111,654,1.4360093788119321
328,0.1328197530864197530864197531,656,2.005155554029691
329,0.1336308641975308641975308642,658,1.418756348854512
330,0.1344444444444444444444444445,660,0.7499993249434932
331,0.1352604938271604938271604938,662,1.0443841524591513
332,0.1360790123456790123456790124,664,2.652244104620177
333,0.1369,666,-0.5697538012193551
334,0.1377234567901234567901234568,668,-0.25068058715528674
335,0.1385493827160493827160493827,670,-3.40097046690837
336,0.1393777777777777777777777778,672,0.32204688769278367
337,0.1402086419753086419753086419,674,-1.7009085107455526
338,0.1410419753086419753086419753,676,-0.8084446144531481
339,0.1418777777777777777777777778,678,-0.4337717321413342
340,0.1427160493827160493827160494,680,2.8688259667021496
341,0.1435567901234567901234567901,682,-3.5616323806911367
342,0.1444,684,2.12068667896355
343,0.1452456790123456790123456790,686,-0.6668795318145208
344,0.1460938271604938271604938271,688,-0.21672343323943719
345,0.1469444444444444444444444444,690,-0.7628772547538736
346,0.1477975308641975308641975308,692,-0.694636779578757
347,0.1486530864197530864197530865,694,-1.0293024849456343
348,0.1495111111111111111111111111,696,-1.3637692759797158
349,0.1503716049382716049382716050,698,2.0913689986188073
350,0.1512345679012345679012345679,700,0.9539376717287039
351,0.1521,702,-2.060068284685662
352,0.1529679012345679012345679012,704,-1.3830705924701485
353,0.1538382716049382716049382716,706,-1.0261871360764567
354,0.1547111111111111111111111111,708,-2.706789862930761
