,Mass (amu),Time (microseconds),Amplitude
0,0,0,-0.9143572155172862
1,0.000001234567901234567901234567901,2,0.38940064940790486
2,0.000004938271604938271604938271604,4,3.048620037096163
3,0.00001111111111111111111111111111,6,-3.229744588817879
4,0.00001975308641975308641975308642,8,0.5282218347481781
5,0.00003086419753086419753086419754,10,-4.52836490922809
6,0.00004444444444444444444444444445,12,0.18965282361754734
7,0.00006049382716049382716049382716,14,2.8576445053756845
8,0.00007901234567901234567901234568,16,-3.554716399377779
9,0.0001,18,2.3514154144845385
10,0.0001234567901234567901234567901,20,-1.4691420245005897
11,0.0001493827160493827160493827160,22,-0.33236231293908325
12,0.0001777777777777777777777777777,24,2.012887682923458
13,0.0002086419753086419753086419752,26,7.535472651308295
14,0.0002419753086419753086419753088,28,-3.42077318392624
15,0.0002777777777777777777777777779,30,0.7702399830223131
16,0.0003160493827160493827160493828,32,-5.067944208521341
17,0.0003567901234567901234567901235,34,-2.3978217574089005
18,0.0004,36,-0.09750122111444733
19,0.0004456790123456790123456790123,38,0.02109002806407166
20,0.0004938271604938271604938271604,40,-0.48477669302097687
21,0.0005444444444444444444444444443,42,-0.8924384378362434
22,0.0005975308641975308641975308640,44,-1.3946557719024564
23,0.0006530864197530864197530864200,46,3.3092035483077287
24,0.0007111111111111111111111111113,48,-2.087886787320622
25,0.0007716049382716049382716049384,50,5.051967044451673
26,0.0008345679012345679012345679013,52,-1.9352177551563163
27,0.0009,54,1.7231526065431322
28,0.0009679012345679012345679012345,56,-1.050452048503682
29,0.001038271604938271604938271605,58,-1.9532359738085268
30,0.001111111111111111111111111111,60,0.5003671715535031
31,0.001186419753086419753086419753,62,-2.5348944990469717
32,0.001264197530864197530864197531,64,0.9630870547317827
33,0.001344444444444444444444444445,66,2.735477432848573
34,0.001427160493827160493827160494,68,-3.496631960880869
35,0.001512345679012345679012345679,70,-0.05870819876089633
36,0.0016,72,0.3013954927083728
37,0.001690123456790123456790123457,74,0.8341312313119117
38,0.001782716049382716049382716049,76,1.1999474276432607
39,0.001877777777777777777777777777,78,-0.022067854231849388
40,0.001975308641975308641975308642,80,0.5613066832879935
41,0.002075308641975308641975308642,82,1.0548560278259551
42,0.002177777777777777777777777778,84,3.4738216604018985
43,0.002282716049382716049382716050,86,-0.24998967170018033
44,0.002390123456790123456790123457,88,2.809075654637885
45,0.0025,90,-0.25194103425425723
46,0.002612345679012345679012345679,92,-1.9921671278727757
47,0.002727160493827160493827160494,94,3.8414046828086614
48,0.002844444444444444444444444444,96,-1.0289540538340671
49,0.002964197530864197530864197530,98,0.9223462866931625
50,0.003086419753086419753086419754,100,0.44411639359451305
51,0.003211111111111111111111111111,102,4.021005130803195
52,0.003338271604938271604938271605,104,0.6894884474853205
53,0.003467901234567901234567901235,106,-1.5906565147883507
54,0.0036,108,4.564555121447873
55,0.003734567901234567901234567901,110,1.815503486917372
56,0.003871604938271604938271604938,112,3.5346204964031718
57,0.004011111111111111111111111111,114,0.5135284180454119
58,0.004153086419753086419753086419,116,-3.978148431117337
59,0.004297530864197530864197530865,118,-1.6869542791194034
60,0.004444444444444444444444444445,120,0.31715712918360806
61,0.004593827160493827160493827161,122,3.430532885289629
62,0.004745679012345679012345679012,124,1.8491440527755922
63,0.0049,126,-8.366435571258894
64,0.005056790123456790123456790123,128,-4.302629277778777
65,0.005216049382716049382716049382,130,-0.9251320697963521
66,0.005377777777777777777777777777,132,-2.2271806883278478
67,0.005541975308641975308641975308,134,0.16095138021970698
68,0.005708641975308641975308641976,136,1.539861689632046
69,0.005877777777777777777777777778,138,-4.425705947718966
70,0.006049382716049382716049382716,140,-3.0555516009799355
71,0.006223456790123456790123456790,142,-2.3544520121041566
72,0.0064,144,-0.5829356173280327
73,0.006579012345679012345679012345,146,-1.7283297589632804
74,0.006760493827160493827160493827,148,-2.257748591836325
75,0.006944444444444444444444444444,150,0.3329148361450763
76,0.007130864197530864197530864197,152,0.21349769795818857
77,0.007319753086419753086419753087,154,2.325847572564325
78,0.007511111111111111111111111112,156,4.598245623713423
79,0.007704938271604938271604938272,158,1.0875712778071558
80,0.007901234567901234567901234568,160,-4.965413536787464
81,0.0081,162,0.6999703344108436
82,0.008301234567901234567901234568,164,-3.07013382915646
83,0.008504938271604938271604938271,166,2.992228095767383
84,0.008711111111111111111111111110,168,2.464854529935722
85,0.008919753086419753086419753086,170,2.670890401264282
86,0.009130864197530864197530864198,172,-2.531379342292625
87,0.009344444444444444444444444445,174,0.8675578279635703
88,0.009560493827160493827160493828,176,0.5072982484846004
89,0.009779012345679012345679012346,178,0.3305597705321412
90,0.01,180,0.09159281188441015
91,0.01022345679012345679012345679,182,-0.667726227467517
92,0.01044938271604938271604938271,184,1.3367108875611224
93,0.01067777777777777777777777777,186,2.3113693966930082
94,0.01090864197530864197530864197,188,-2.7539092458727596
95,0.01114197530864197530864197532,190,3.0186504327435344
96,0.01137777777777777777777777778,192,-0.8342475839810962
97,0.01161604938271604938271604939,194,-1.7078279322583405
98,0.01185679012345679012345679013,196,0.594207957767773
99,0.0121,198,-0.6482123473060349
100,0.01234567901234567901234567901,200,3.6785191274964704
101,0.01259382716049382716049382716,202,-0.9280942210892323
102,0.01284444444444444444444444444,204,1.6029928695944056
103,0.01309753086419753086419753085,206,-2.079708913423423
104,0.01335308641975308641975308643,208,0.23378923951591718
105,0.01361111111111111111111111112,210,-4.262251746690897
106,0.01387160493827160493827160494,212,-6.254552739748416
107,0.01413456790123456790123456790,214,4.4008770603579945
108,0.0144,216,-2.030153242012049
109,0.01466790123456790123456790123,218,-0.06128303491298078
110,0.01493827160493827160493827160,220,-2.1158272291351152
111,0.01521111111111111111111111110,222,0.35230986936676306
112,0.01548641975308641975308641974,224,-3.0277652538240054
113,0.01576419753086419753086419754,226,3.1861478012460545
114,0.01604444444444444444444444445,228,0.48531539363940024
115,0.01632716049382716049382716050,230,2.4847303945320136
116,0.01661234567901234567901234568,232,2.6081206147050815
117,0.0169,234,1.59010839075926
118,0.01719012345679012345679012345,236,-1.0283430919458743
119,0.01748271604938271604938271604,238,2.3529031327247822
120,0.01777777777777777777777777777,240,1.1573085264266099
121,0.01807530864197530864197530863,242,-0.8232926576603264
122,0.01837530864197530864197530865,244,1.392114074231755
123,0.01867777777777777777777777779,246,-1.9361017501728526
124,0.01898271604938271604938271606,248,0.22520482339859527
125,0.01929012345679012345679012346,250,-1.4221140739155962
126,0.0196,252,-1.2631625598680478
127,0.01991234567901234567901234568,254,-1.4027095685196715
128,0.02022716049382716049382716049,256,-1.855647112455852
129,0.02054444444444444444444444443,258,0.07066916735645515
130,0.02086419753086419753086419752,260,-4.482146166032695
131,0.02118641975308641975308641977,262,-0.8309477486952682
132,0.02151111111111111111111111112,264,0.391670471560313
133,0.02183827160493827160493827161,266,1.0584052384204223
134,0.02216790123456790123456790124,268,-0.1652719993226942
135,0.0225,270,-3.711012608470388
136,0.02283456790123456790123456790,272,-2.766908005282111
137,0.02317160493827160493827160493,274,-1.0499917336982527
138,0.02351111111111111111111111110,276,0.4309597053050987
139,0.02385308641975308641975308641,278,1.7092755853605848
140,0.02419753086419753086419753088,280,-2.624522789239307
141,0.02454444444444444444444444445,282,-2.9776092269889456
142,0.02489382716049382716049382717,284,-2.2909870090925266
143,0.02524567901234567901234567902,286,1.7219206377387497
144,0.0256,288,0.5207938558913429
145,0.02595679012345679012345679012,290,-1.1311989997499916
146,0.02631604938271604938271604938,292,1.0819118369651095
147,0.02667777777777777777777777777,294,1.2482399202283845
148,0.02704197530864197530864197529,296,-0.04154239911846689
149,0.02740864197530864197530864199,298,3.3348028924751105
150,0.02777777777777777777777777779,300,1.0880686636597947
151,0.02814938271604938271604938272,302,0.003740576917047029
152,0.02852345679012345679012345679,304,-0.41036556264459506
153,0.0289,306,-5.86407206898949
154,0.02927901234567901234567901234,308,1.7429564587498887
155,0.02966049382716049382716049382,310,-0.806102080002804
156,0.03004444444444444444444444443,312,4.071579018464826
157,0.03043086419753086419753086418,314,-0.4983318436044393
158,0.03081975308641975308641975310,316,0.38949929427066615
159,0.03121111111111111111111111112,318,-1.7544376069184202
160,0.03160493827160493827160493828,320,-2.1987530524264494
161,0.03200123456790123456790123457,322,0.8531034711764107
162,0.0324,324,-0.7095223426663765
163,0.03280123456790123456790123456,326,2.9141027186085693
164,0.03320493827160493827160493826,328,-4.629746405569463
165,0.03361111111111111111111111110,330,-2.2154529846297892
166,0.03401975308641975308641975307,332,0.8508177410899322
167,0.03443086419753086419753086421,334,3.359460120095116
168,0.03484444444444444444444444446,336,-0.4353692642079823
169,0.03526049382716049382716049384,338,1.2213899584496852
170,0.03567901234567901234567901235,340,-1.4242483840550948
171,0.0361,342,-0.08102058680102205
172,0.03652345679012345679012345679,344,1.241690664577529
173,0.03694938271604938271604938271,346,4.0700810225533415
174,0.03737777777777777777777777776,348,-0.2507885090196174
175,0.03780864197530864197530864196,350,-2.7705130620172547
176,0.03824197530864197530864197533,352,2.0563680794667705
177,0.03867777777777777777777777779,354,0.7029458746461271
178,0.03911604938271604938271604939,356,-3.53598003478059
179,0.03955679012345679012345679013,358,0.4071537521638145
180,0.04,360,0.16487202508672344
181,0.04044567901234567901234567901,362,-4.883565899589068
182,0.04089382716049382716049382715,364,2.5186075713741967
183,0.04134444444444444444444444443,366,1.2901245142503064
184,0.04179753086419753086419753085,368,-2.4685277559284198
185,0.04225308641975308641975308644,370,2.987082658656364
186,0.04271111111111111111111111112,372,-4.162580363103772
187,0.04317160493827160493827160495,374,-3.5430503447136874
188,0.04363456790123456790123456791,376,-5.18936574293421
189,0.0441,378,3.426948032941633
190,0.04456790123456790123456790123,380,-0.9901525509763227
191,0.04503827160493827160493827160,382,5.8764737044992374
192,0.04551111111111111111111111110,384,-3.258591299193874
193,0.04598641975308641975308641973,386,-1.2347438270394568
194,0.04646419753086419753086419755,388,-1.8208502629338974
195,0.04694444444444444444444444446,390,-0.07758757423550144
196,0.04742716049382716049382716050,392,-3.392631947981658
197,0.04791234567901234567901234568,394,4.696091292160625
198,0.0484,396,1.723015756398397
199,0.04889012345679012345679012345,398,0.4603013868684171
200,0.04938271604938271604938271604,400,-5.659744636027203
201,0.04987777777777777777777777776,402,-2.1594763419173653
202,0.05037530864197530864197530862,404,4.2320363371928265
203,0.05087530864197530864197530866,406,-1.6582693160714665
204,0.05137777777777777777777777779,408,-0.6864198538422845
205,0.05188271604938271604938271606,410,-0.6186675601181333
206,0.05239012345679012345679012346,412,1.1731946533921007
207,0.0529,414,2.033798820124663
208,0.05341234567901234567901234567,416,-1.0397395351048975
209,0.05392716049382716049382716048,418,1.3982873842731882
210,0.05444444444444444444444444443,420,2.0440260649453146
211,0.05496419753086419753086419751,422,-1.1094241150106439
212,0.05548641975308641975308641977,424,4.403340788853014
213,0.05601111111111111111111111113,426,0.37560411469024085
214,0.05653827160493827160493827162,428,1.051741422302799
215,0.05706790123456790123456790124,430,2.546725019142057
216,0.0576,432,3.794034149332145
217,0.05813456790123456790123456790,434,5.22952435214303
218,0.05867160493827160493827160493,436,-2.4168199086824576
219,0.05921111111111111111111111109,438,3.248430157778925
220,0.05975308641975308641975308640,440,2.3227021409588513
221,0.06029753086419753086419753089,442,0.9763651223207991
222,0.06084444444444444444444444446,444,3.3954256414996133
223,0.06139382716049382716049382717,446,-1.9549180294031283
224,0.06194567901234567901234567902,448,-2.0263388946339753
225,0.0625,450,-4.216211436125877
226,0.06305679012345679012345679012,452,0.15621893205212495
227,0.06361604938271604938271604937,454,3.4436439104029315
228,0.06417777777777777777777777776,456,-0.9241144343756681
229,0.06474197530864197530864197529,458,-1.2936441108598062
230,0.06530864197530864197530864200,460,-1.3320824979335941
231,0.06587777777777777777777777779,462,1.4278987214793943
232,0.06644938271604938271604938273,464,1.4259604483430894
233,0.06702345679012345679012345680,466,-1.6611939989413982
234,0.0676,468,-1.0448999605063989
235,0.06817901234567901234567901234,470,3.6038921548772613
236,0.06876049382716049382716049382,472,0.0930796485676456
237,0.06934444444444444444444444443,474,5.8024810552779735
238,0.06993086419753086419753086417,476,-4.994523402400355
239,0.07051975308641975308641975311,478,1.5698769799584293
240,0.07111111111111111111111111113,480,-0.3396634453942735
241,0.07170493827160493827160493828,482,0.7189302715209882
242,0.07230123456790123456790123457,484,-0.889055731241189
243,0.0729,486,0.7839660929515717
244,0.07350123456790123456790123456,488,-1.8971891394385754
245,0.07410493827160493827160493826,490,0.506189339865788
246,0.07471111111111111111111111109,492,-0.3611980457747443
247,0.07531975308641975308641975306,494,-0.8336378703870235
248,0.07593086419753086419753086422,496,2.238437620780006
249,0.07654444444444444444444444446,498,-0.44551920670328266
250,0.07716049382716049382716049384,500,-0.7698161730624258
251,0.07777901234567901234567901235,502,0.2820092189434262
252,0.0784,504,-0.5150388371734257
253,0.07902345679012345679012345678,506,0.9070738580132311
254,0.07964938271604938271604938270,508,-1.877069083929419
255,0.08027777777777777777777777776,510,-4.276130220678068
256,0.08090864197530864197530864195,512,0.5811526466364507
257,0.08154197530864197530864197533,514,-3.73537220935849
258,0.08217777777777777777777777780,516,0.9496706886191781
259,0.08281604938271604938271604940,518,-2.669309598619759
260,0.08345679012345679012345679013,520,1.6591984815457552
261,0.0841,522,-2.2235433310579027
262,0.08474567901234567901234567901,524,0.2696074330055897
263,0.08539382716049382716049382715,526,1.9885554021835974
264,0.08604444444444444444444444442,528,-1.7420098135013586
265,0.08669753086419753086419753084,530,-3.2106516288462874
266,0.08735308641975308641975308645,532,1.450147370574712
267,0.08801111111111111111111111113,534,2.240904838465715
268,0.08867160493827160493827160495,536,0.18420916375848614
269,0.08933456790123456790123456791,538,-3.586688045879814
270,0.09,540,-4.1537333333636495
271,0.09066790123456790123456790123,542,2.107358397267827
272,0.09133827160493827160493827159,544,-0.46801103908067837
273,0.09201111111111111111111111109,546,0.5139866865942737
274,0.09268641975308641975308641973,548,2.5566674395915907
275,0.09336419753086419753086419756,550,-0.5169102433532584
276,0.09404444444444444444444444446,552,-2.2395442369710006
277,0.09472716049382716049382716051,554,-2.057728946064753
278,0.09541234567901234567901234569,556,0.10330712844049939
279,0.0961,558,0.689146515984002
280,0.09679012345679012345679012345,560,5.921378243166114
281,0.09748271604938271604938271604,562,-2.2887660259754647
282,0.09817777777777777777777777776,564,-1.083522615292043
283,0.09887530864197530864197530861,566,0.19981618175080654
284,0.09957530864197530864197530867,568,-2.2070816255022465
285,0.1002777777777777777777777778,570,-0.5274551965348561
286,0.1009827160493827160493827161,572,2.7163284420747638
287,0.1016901234567901234567901235,574,1.265022301244123
288,0.1024,576,-3.9280298604820088
289,0.1031123456790123456790123457,578,3.4667277419904736
290,0.1038271604938271604938271605,580,-3.824341788329908
291,0.1045444444444444444444444444,582,-5.900842747182696
292,0.1052641975308641975308641975,584,-2.6626206865876387
293,0.1059864197530864197530864198,586,3.0751527648101478
294,0.1067111111111111111111111111,588,2.169809475157929
295,0.1074382716049382716049382716,590,2.8858528325795234
296,0.1081679012345679012345679012,592,0.03301769885156534
297,0.1089,594,-1.6626983242040383
298,0.1096345679012345679012345679,596,0.952646759897802
299,0.1103716049382716049382716049,598,0.3123161091823016
300,0.1111111111111111111111111111,600,-1.6120774509060531
301,0.1118530864197530864197530864,602,-2.0891488175571795
302,0.1125975308641975308641975309,604,1.1151802655474976
303,0.1133444444444444444444444445,606,2.799616135781336
304,0.1140938271604938271604938272,608,2.128499055409876
305,0.1148456790123456790123456790,610,-0.9802608307294371
306,0.1156,612,-2.171120742966692
307,0.1163567901234567901234567901,614,-1.5651756436218613
308,0.1171160493827160493827160494,616,3.843712569160913
309,0.1178777777777777777777777778,618,-1.822695901031044
310,0.1186419753086419753086419753,620,1.7590652375207805
311,0.1194086419753086419753086420,622,0.5359088110021357
312,0.1201777777777777777777777778,624,-2.4733942503008857
313,0.1209493827160493827160493827,626,-1.0485055662919087
314,0.1217234567901234567901234568,628,-0.11296544685128357
315,0.1225,630,-2.532668729858211
316,0.1232790123456790123456790123,632,0.9022289918019779
317,0.1240604938271604938271604938,634,-3.1331401225470743
318,0.1248444444444444444444444444,636,1.0903517988219642
319,0.1256308641975308641975308642,638,-1.6646888354878564
320,0.1264197530864197530864197531,640,1.4183329722412188
321,0.1272111111111111111111111111,642,-1.2609753807671011
322,0.1280049382716049382716049383,644,2.3704146750993345
323,0.1288012345679012345679012346,646,-1.1540731094810286
324,0.1296,648,-4.193250910374678
325,0.1304012345679012345679012346,650,0.3438457860258671
326,0.1312049382716049382716049383,652,1.4012906735355206
327,0.1320111111111111111111111111,654,3.1920759012923416
328,0.1328197530864197530864197531,656,0.7287208853646764
329,0.1336308641975308641975308642,658,0.11195393520848024
330,0.1344444444444444444444444445,660,3.0677730130309335
331,0.1352604938271604938271604938,662,1.2573777796105057
332,0.1360790123456790123456790124,664,-2.698754520839771
333,0.1369,666,-0.9258730646172237
334,0.1377234567901234567901234568,668,3.373182141268718
335,0.1385493827160493827160493827,670,-0.9105894112914049
336,0.1393777777777777777777777778,672,-2.6936513274270646
337,0.1402086419753086419753086419,674,0.13837997511212108
338,0.1410419753086419753086419753,676,1.0452860991910333
339,0.1418777777777777777777777778,678,-1.6166745182955289
340,0.1427160493827160493827160494,680,-1.658612923031502
341,0.1435567901234567901234567901,682,2.6705803691600396
342,0.1444,684,-2.7440339197120625
343,0.1452456790123456790123456790,686,-0.3592912475482461
344,0.1460938271604938271604938271,688,-1.6063652672892414
345,0.1469444444444444444444444444,690,0.8740320988668628
346,0.1477975308641975308641975308,692,-0.3662162764029085
347,0.1486530864197530864197530865,694,0.7416576060032735
348,0.1495111111111111111111111111,696,-0.8058672386978302
349,0.1503716049382716049382716050,698,0.9111043368070899
350,0.1512345679012345679012345679,700,-2.24111666392934
351,0.1521,702,-2.2868041697272834
352,0.1529679012345679012345679012,704,0.6858914544295218
353,0.1538382716049382716049382716,706,0.236507588095406
354,0.1547111111111111111111111111,708,3.9905984228709284
