,Mass (amu),Time (microseconds),Amplitude
0,0,0,-2.484546106323686
1,0.000001234567901234567901234567901,2,-0.7798846819574666
2,0.000004938271604938271604938271604,4,3.124762750531073
3,0.00001111111111111111111111111111,6,2.139242408748379
4,0.00001975308641975308641975308642,8,-0.32899449966506966
5,0.00003086419753086419753086419754,10,4.0190348714912485
6,0.00004444444444444444444444444445,12,0.6061155252524233
7,0.00006049382716049382716049382716,14,2.2307380563436743
8,0.00007901234567901234567901234568,16,2.4081844927352
9,0.0001,18,1.5618791892130772
10,0.0001234567901234567901234567901,20,-3.174106004517774
11,0.0001493827160493827160493827160,22,4.460049366902506
12,0.0001777777777777777777777777777,24,-0.7129553385289985
13,0.0002086419753086419753086419752,26,-0.6121890049031519
14,0.0002419753086419753086419753088,28,1.6579546045763889
15,0.0002777777777777777777777777779,30,0.21287823760295563
16,0.0003160493827160493827160493828,32,0.4009170976253545
17,0.0003567901234567901234567901235,34,-1.614332650084926
18,0.0004,36,2.6278708898570398
19,0.0004456790123456790123456790123,38,-1.5001934001980752
20,0.0004938271604938271604938271604,40,1.403605210655438
21,0.0005444444444444444444444444443,42,0.20947493386733734
22,0.0005975308641975308641975308640,44,1.2618442332761026
23,0.0006530864197530864197530864200,46,-1.9680984565040807
24,0.0007111111111111111111111111113,48,0.7384520589547672
25,0.0007716049382716049382716049384,50,-3.21066186767094
26,0.0008345679012345679012345679013,52,3.2432984063865575
27,0.0009,54,-3.253204996242059
28,0.0009679012345679012345679012345,56,1.8146194792582409
29,0.001038271604938271604938271605,58,0.42989100537409086
30,0.001111111111111111111111111111,60,0.4157496861739818
31,0.001186419753086419753086419753,62,1.4085684914733383
32,0.001264197530864197530864197531,64,-0.2004230673338773
33,0.001344444444444444444444444445,66,0.9171450047140868
34,0.001427160493827160493827160494,68,-4.693224117391282
35,0.001512345679012345679012345679,70,1.2084977504595895
36,0.0016,72,-2.6594406376430975
37,0.001690123456790123456790123457,74,-4.1883254843035145
38,0.001782716049382716049382716049,76,-2.7531464153130982
39,0.001877777777777777777777777777,78,-3.0739218173535696
40,0.001975308641975308641975308642,80,1.697494957471596
41,0.002075308641975308641975308642,82,-1.4568606665548016
42,0.002177777777777777777777777778,84,3.0791124709667
43,0.002282716049382716049382716050,86,-1.5643909155570968
44,0.002390123456790123456790123457,88,-1.042315646081773
45,0.0025,90,-1.539256659732006
46,0.002612345679012345679012345679,92,0.5333754288150588
47,0.002727160493827160493827160494,94,0.24953108029725
48,0.002844444444444444444444444444,96,3.055268626306163
49,0.002964197530864197530864197530,98,2.668204162540242
50,0.003086419753086419753086419754,100,0.6263384269090739
51,0.003211111111111111111111111111,102,1.3419551061152504
52,0.003338271604938271604938271605,104,0.8153916402984551
53,0.003467901234567901234567901235,106,-2.0953805186230943
54,0.0036,108,3.9576319623854395
55,0.003734567901234567901234567901,110,1.4751131745097787
56,0.003871604938271604938271604938,112,1.6800215875177256
57,0.004011111111111111111111111111,114,2.144242481016456
58,0.004153086419753086419753086419,116,2.084811050359506
59,0.004297530864197530864197530865,118,1.3788169192517914
60,0.004444444444444444444444444445,120,-2.2336360293452944
61,0.004593827160493827160493827161,122,-2.334634619969511
62,0.004745679012345679012345679012,124,4.345552641796338
63,0.0049,126,1.721808820522867
64,0.005056790123456790123456790123,128,0.8057437570282231
65,0.005216049382716049382716049382,130,-0.3088998179435309
66,0.005377777777777777777777777777,132,-0.41513600554819663
67,0.005541975308641975308641975308,134,-0.16377168027079853
68,0.005708641975308641975308641976,136,-2.0968728893441653
69,0.005877777777777777777777777778,138,-1.8916434205558421
70,0.006049382716049382716049382716,140,-0.9488320957106231
71,0.006223456790123456790123456790,142,-4.580685220497886
72,0.0064,144,-2.8297120926042223
73,0.006579012345679012345679012345,146,2.469185712759083
74,0.006760493827160493827160493827,148,-2.651364068744408
75,0.006944444444444444444444444444,150,-3.426921160425533
76,0.007130864197530864197530864197,152,0.5629092448242157
77,0.007319753086419753086419753087,154,-1.8377528652035804
78,0.007511111111111111111111111112,156,-1.0622446715403568
79,0.007704938271604938271604938272,158,-1.684408195199775
80,0.007901234567901234567901234568,160,0.7422050840583881
81,0.0081,162,-2.444479823980133
82,0.008301234567901234567901234568,164,-2.556250626942236
83,0.008504938271604938271604938271,166,-2.7410069991709007
84,0.008711111111111111111111111110,168,1.474914713874334
85,0.008919753086419753086419753086,170,-4.139920274580123
86,0.009130864197530864197530864198,172,-3.475363287346308
87,0.009344444444444444444444444445,174,-1.599921735871209
88,0.009560493827160493827160493828,176,1.2713076919522852
89,0.009779012345679012345679012346,178,0.5055742091512374
90,0.01,180,-0.3300014046903332
91,0.01022345679012345679012345679,182,-2.246090399964677
92,0.01044938271604938271604938271,184,-1.0669511070515734
93,0.01067777777777777777777777777,186,-1.7072409115316742
94,0.01090864197530864197530864197,188,-0.2656750432484963
95,0.01114197530864197530864197532,190,2.0105806613708523
96,0.01137777777777777777777777778,192,3.7375672053933173
97,0.01161604938271604938271604939,194,-1.860291730720135
98,0.01185679012345679012345679013,196,-2.350170860567773
99,0.0121,198,-0.2720428226900709
100,0.01234567901234567901234567901,200,1.8769990982607785
101,0.01259382716049382716049382716,202,5.4937587773559295
102,0.01284444444444444444444444444,204,0.3869467955100314
103,0.01309753086419753086419753085,206,2.4080591414527213
104,0.01335308641975308641975308643,208,0.08422000955635299
105,0.01361111111111111111111111112,210,-4.028959448377856
106,0.01387160493827160493827160494,212,-0.05911872147121655
107,0.01413456790123456790123456790,214,-1.9432315486650358
108,0.0144,216,-0.436623175149898
109,0.01466790123456790123456790123,218,-0.19498403178146811
110,0.01493827160493827160493827160,220,2.6948590528791785
111,0.01521111111111111111111111110,222,-5.474740218664092
112,0.01548641975308641975308641974,224,2.313220672927966
113,0.01576419753086419753086419754,226,-0.10106957898879793
114,0.01604444444444444444444444445,228,-4.182659369554266
115,0.01632716049382716049382716050,230,-1.2762746810709849
116,0.01661234567901234567901234568,232,3.0781946657290655
117,0.0169,234,0.977137702650026
118,0.01719012345679012345679012345,236,1.2616968647295566
119,0.01748271604938271604938271604,238,-4.478636027230027
120,0.01777777777777777777777777777,240,2.367762310929144
121,0.01807530864197530864197530863,242,-0.42272102911815274
122,0.01837530864197530864197530865,244,1.6906926789286219
123,0.01867777777777777777777777779,246,2.0355024390065126
124,0.01898271604938271604938271606,248,0.5047680948955932
125,0.01929012345679012345679012346,250,-0.8633131975119932
126,0.0196,252,-1.4889698268140905
127,0.01991234567901234567901234568,254,2.1373274036446275
128,0.02022716049382716049382716049,256,1.8557652318060565
129,0.02054444444444444444444444443,258,0.3091249553855821
130,0.02086419753086419753086419752,260,0.40894774983785837
131,0.02118641975308641975308641977,262,-2.4642979703383783
132,0.02151111111111111111111111112,264,-0.9955209670642474
133,0.02183827160493827160493827161,266,-1.509396725733403
134,0.02216790123456790123456790124,268,-2.430182248779793
135,0.0225,270,-3.2401240944616396
136,0.02283456790123456790123456790,272,-1.8481602453564385
137,0.02317160493827160493827160493,274,1.2331383272429364
138,0.02351111111111111111111111110,276,1.4494190335058084
139,0.02385308641975308641975308641,278,1.7302162557370673
140,0.02419753086419753086419753088,280,-2.44038964966535
141,0.02454444444444444444444444445,282,1.875444409072576
142,0.02489382716049382716049382717,284,3.8451916049540613
143,0.02524567901234567901234567902,286,-4.802613518201144
144,0.0256,288,-6.524182362804644
145,0.02595679012345679012345679012,290,0.551969875057587
146,0.02631604938271604938271604938,292,-0.35544238028272185
147,0.02667777777777777777777777777,294,-0.25017864275164187
148,0.02704197530864197530864197529,296,4.758124790306181
149,0.02740864197530864197530864199,298,1.009504198489898
150,0.02777777777777777777777777779,300,-1.1041172367832326
151,0.02814938271604938271604938272,302,-0.9914766225406327
152,0.02852345679012345679012345679,304,-1.3937862621452908
153,0.0289,306,1.4412396055122023
154,0.02927901234567901234567901234,308,0.20930590468912696
155,0.02966049382716049382716049382,310,0.46063945654774724
156,0.03004444444444444444444444443,312,-0.5845014937496081
157,0.03043086419753086419753086418,314,0.5135913539604837
158,0.03081975308641975308641975310,316,4.462370771532927
159,0.03121111111111111111111111112,318,2.618026924171855
160,0.03160493827160493827160493828,320,-0.618452736115985
161,0.03200123456790123456790123457,322,2.35170725288968
162,0.0324,324,1.4396633144474933
163,0.03280123456790123456790123456,326,2.541938161838979
164,0.03320493827160493827160493826,328,1.9076971548901065
165,0.03361111111111111111111111110,330,2.0387510188622215
166,0.03401975308641975308641975307,332,1.4562892781768386
167,0.03443086419753086419753086421,334,0.13984151961011523
168,0.03484444444444444444444444446,336,-5.609343125588753
169,0.03526049382716049382716049384,338,1.5211860369259835
170,0.03567901234567901234567901235,340,-1.6958947618129427
171,0.0361,342,-0.504546210752534
172,0.03652345679012345679012345679,344,0.762273899274919
173,0.03694938271604938271604938271,346,0.9027681406453527
174,0.03737777777777777777777777776,348,0.5275572668592287
175,0.03780864197530864197530864196,350,-0.5082151116091698
176,0.03824197530864197530864197533,352,-0.7537307017693861
177,0.03867777777777777777777777779,354,0.12693477134037814
178,0.03911604938271604938271604939,356,-0.5715563946836392
179,0.03955679012345679012345679013,358,2.4741932960677424
180,0.04,360,-3.340799480105576
181,0.04044567901234567901234567901,362,1.5869364322108532
182,0.04089382716049382716049382715,364,3.5304401291852536
183,0.04134444444444444444444444443,366,2.968593623146248
184,0.04179753086419753086419753085,368,-0.14108097406538567
185,0.04225308641975308641975308644,370,3.454241963856415
186,0.04271111111111111111111111112,372,-0.3076461410356748
187,0.04317160493827160493827160495,374,3.7573621670402573
188,0.04363456790123456790123456791,376,0.27556216182737525
189,0.0441,378,1.8611485269823025
190,0.04456790123456790123456790123,380,0.532449143615374
191,0.04503827160493827160493827160,382,3.224129299099214
192,0.04551111111111111111111111110,384,-0.7419282333907447
193,0.04598641975308641975308641973,386,-0.09894554653334688
194,0.04646419753086419753086419755,388,-0.6986532134746302
195,0.04694444444444444444444444446,390,1.0749712420407178
196,0.04742716049382716049382716050,392,-0.8767127593780171
197,0.04791234567901234567901234568,394,3.093291685435739
198,0.0484,396,-0.41816177189248294
199,0.04889012345679012345679012345,398,2.8738269391282216
200,0.04938271604938271604938271604,400,-1.9081056866795025
201,0.04987777777777777777777777776,402,-1.3139799664358736
202,0.05037530864197530864197530862,404,-5.671436337678832
203,0.05087530864197530864197530866,406,-1.6678831189008243
204,0.05137777777777777777777777779,408,-4.5965368987265975
205,0.05188271604938271604938271606,410,-3.184869810215884
206,0.05239012345679012345679012346,412,0.2934041830931376
207,0.0529,414,4.167775816036995
208,0.05341234567901234567901234567,416,0.8636077725028436
209,0.05392716049382716049382716048,418,-0.38193273885144496
210,0.05444444444444444444444444443,420,-3.500808485564706
211,0.05496419753086419753086419751,422,-0.8323804503278632
212,0.05548641975308641975308641977,424,-0.13215177107667564
213,0.05601111111111111111111111113,426,-3.4526677260860694
214,0.05653827160493827160493827162,428,3.476227505674663
215,0.05706790123456790123456790124,430,-2.9534834313809277
216,0.0576,432,6.1707752529641695
217,0.05813456790123456790123456790,434,0.06165283389091992
218,0.05867160493827160493827160493,436,-1.897902794193261
219,0.05921111111111111111111111109,438,0.6518332630236339
220,0.05975308641975308641975308640,440,0.1970598335326702
221,0.06029753086419753086419753089,442,1.3111840022605121
222,0.06084444444444444444444444446,444,-2.132440843588574
223,0.06139382716049382716049382717,446,-2.9857098684380974
224,0.06194567901234567901234567902,448,1.064284248145394
225,0.0625,450,-2.7354052056976186
226,0.06305679012345679012345679012,452,2.109413449908726
227,0.06361604938271604938271604937,454,1.6927122575467508
228,0.06417777777777777777777777776,456,1.6516867946397276
229,0.06474197530864197530864197529,458,-1.7263098055689805
230,0.06530864197530864197530864200,460,2.424951165518299
231,0.06587777777777777777777777779,462,-1.1772657534203455
232,0.06644938271604938271604938273,464,0.04783838682041985
233,0.06702345679012345679012345680,466,1.4329037061103371
234,0.0676,468,1.104545456873025
235,0.06817901234567901234567901234,470,1.5643493974461695
236,0.06876049382716049382716049382,472,-1.3508023140040324
237,0.06934444444444444444444444443,474,0.0662938184818382
238,0.06993086419753086419753086417,476,-1.9552878653039847
239,0.07051975308641975308641975311,478,-2.6442147886046197
240,0.07111111111111111111111111113,480,1.2419998693955405
241,0.07170493827160493827160493828,482,-1.3358043233632955
242,0.07230123456790123456790123457,484,-2.451281732730938
243,0.0729,486,0.6327768666692831
244,0.07350123456790123456790123456,488,1.5689244584061488
245,0.07410493827160493827160493826,490,1.5246638179419134
246,0.07471111111111111111111111109,492,2.0579739183439507
247,0.07531975308641975308641975306,494,-2.194247982313522
248,0.07593086419753086419753086422,496,-0.733946898934025
249,0.07654444444444444444444444446,498,-0.9025015557354901
250,0.07716049382716049382716049384,500,-3.121094382769538
251,0.07777901234567901234567901235,502,-0.11915229067841174
252,0.0784,504,-1.3636519734519874
253,0.07902345679012345679012345678,506,1.0384487255369137
254,0.07964938271604938271604938270,508,0.14612636971893497
255,0.08027777777777777777777777776,510,0.9438891316727988
256,0.08090864197530864197530864195,512,-1.148907942690059
257,0.08154197530864197530864197533,514,1.6277411178689194
258,0.08217777777777777777777777780,516,-3.3029813073017324
259,0.08281604938271604938271604940,518,1.1548274324025931
260,0.08345679012345679012345679013,520,1.323417423821168
261,0.0841,522,0.878426867525138
262,0.08474567901234567901234567901,524,-1.7118014549325657
263,0.08539382716049382716049382715,526,1.6864514068533338
264,0.08604444444444444444444444442,528,1.6636615228456588
265,0.08669753086419753086419753084,530,1.859506903730689
266,0.08735308641975308641975308645,532,4.350480426083091
267,0.08801111111111111111111111113,534,-0.5242934613344961
268,0.08867160493827160493827160495,536,0.6446758623761394
269,0.08933456790123456790123456791,538,-1.5733030245170934
270,0.09,540,0.4171021063283127
271,0.09066790123456790123456790123,542,1.395018373377989
272,0.09133827160493827160493827159,544,-2.4432499811700112
273,0.09201111111111111111111111109,546,2.1615664304960704
274,0.09268641975308641975308641973,548,-1.4255603919366524
275,0.09336419753086419753086419756,550,0.4662649905393366
276,0.09404444444444444444444444446,552,-2.514818992796629
277,0.09472716049382716049382716051,554,0.5485374746195295
278,0.09541234567901234567901234569,556,2.3285513358221337
279,0.0961,558,1.7958368977157242
280,0.09679012345679012345679012345,560,0.5208635518865833
281,0.09748271604938271604938271604,562,0.18357089695798917
282,0.09817777777777777777777777776,564,1.9196093420692117
283,0.09887530864197530864197530861,566,-0.6883173218042697
284,0.09957530864197530864197530867,568,1.9555013189673671
285,0.1002777777777777777777777778,570,-0.826173920255539
286,0.1009827160493827160493827161,572,-1.902887032237054
287,0.1016901234567901234567901235,574,0.11302768245579264
288,0.1024,576,-2.6064005580160488
289,0.1031123456790123456790123457,578,3.346035067654631
290,0.1038271604938271604938271605,580,-3.365904667260543
291,0.1045444444444444444444444444,582,-1.3672525466122822
292,0.1052641975308641975308641975,584,-1.1079454976806382
293,0.1059864197530864197530864198,586,5.32757199607255
294,0.1067111111111111111111111111,588,3.318896641965879
295,0.1074382716049382716049382716,590,-1.121346656271064
296,0.1081679012345679012345679012,592,0.7647721121914356
297,0.1089,594,0.21609136823900227
298,0.1096345679012345679012345679,596,1.1374454430809031
299,0.1103716049382716049382716049,598,-1.2506472916362927
300,0.1111111111111111111111111111,600,1.9537027110674883
301,0.1118530864197530864197530864,602,0.7590315859334225
302,0.1125975308641975308641975309,604,1.0252414795384102
303,0.1133444444444444444444444445,606,-1.9030842049241625
304,0.1140938271604938271604938272,608,1.4119063297142354
305,0.1148456790123456790123456790,610,0.06192737317131749
306,0.1156,612,-1.3723197421362308
307,0.1163567901234567901234567901,614,-1.1575406274862878
308,0.1171160493827160493827160494,616,1.6716857572833075
309,0.1178777777777777777777777778,618,-0.16509745563838
310,0.1186419753086419753086419753,620,-2.6195640471514996
311,0.1194086419753086419753086420,622,5.635909145790981
312,0.1201777777777777777777777778,624,-2.6625595949056025
313,0.1209493827160493827160493827,626,-0.7489769418377211
314,0.1217234567901234567901234568,628,1.0096151237811775
315,0.1225,630,0.6094354303936447
316,0.1232790123456790123456790123,632,-3.659155483469948
317,0.1240604938271604938271604938,634,2.7042862869049142
318,0.1248444444444444444444444444,636,-0.11628845135972013
319,0.1256308641975308641975308642,638,0.5277474198132841
320,0.1264197530864197530864197531,640,0.44395558530954193
321,0.1272111111111111111111111111,642,1.0140695689829478
322,0.1280049382716049382716049383,644,-0.7417139407113126
323,0.1288012345679012345679012346,646,-4.430022197134901
324,0.1296,648,1.0862732279523803
325,0.1304012345679012345679012346,650,-1.246889694957751
326,0.1312049382716049382716049383,652,-0.2661255021797173
327,0.1320111111111111111111111111,654,0.960709386519328
328,0.1328197530864197530864197531,656,0.9413640560846392
329,0.1336308641975308641975308642,658,-1.770810858981988
330,0.1344444444444444444444444445,660,3.455426451864586
331,0.1352604938271604938271604938,662,-2.800108686889003
332,0.1360790123456790123456790124,664,0.8724358761018836
333,0.1369,666,3.916091897297126
334,0.1377234567901234567901234568,668,4.691356693695633
335,0.1385493827160493827160493827,670,0.34355378007031945
336,0.1393777777777777777777777778,672,8.747408808799439e-05
337,0.1402086419753086419753086419,674,0.7382242910798308
338,0.1410419753086419753086419753,676,3.1249571482079768
339,0.1418777777777777777777777778,678,2.146108645765217
340,0.1427160493827160493827160494,680,0.12618490822363268
341,0.1435567901234567901234567901,682,-1.2626996344330004
342,0.1444,684,0.8270477724021309
343,0.1452456790123456790123456790,686,0.11971083963270947
344,0.1460938271604938271604938271,688,-4.162524566659582
345,0.1469444444444444444444444444,690,-1.1814465260197424
346,0.1477975308641975308641975308,692,-1.1686533487733435
347,0.1486530864197530864197530865,694,-1.0608469176428335
348,0.1495111111111111111111111111,696,-0.8608000396544353
349,0.1503716049382716049382716050,698,-1.2530566480115137
350,0.1512345679012345679012345679,700,-0.06078901010706631
351,0.1521,702,2.8815502875735794
352,0.1529679012345679012345679012,704,2.764281664933605
353,0.1538382716049382716049382716,706,0.7435124494234615
354,0.1547111111111111111111111111,708,1.6325612125886686
