,Mass (amu),Time (microseconds),Amplitude
0,0,0,1.1566174125179043
1,0.000001234567901234567901234567901,2,1.123518253146693
2,0.000004938271604938271604938271604,4,-1.638374138230787
3,0.00001111111111111111111111111111,6,2.590005235542792
4,0.00001975308641975308641975308642,8,0.021625409807808957
5,0.00003086419753086419753086419754,10,-0.6917586198105742
6,0.00004444444444444444444444444445,12,0.2675786832289112
7,0.00006049382716049382716049382716,14,0.07002074820252316
8,0.00007901234567901234567901234568,16,1.2813637170976258
9,0.0001,18,5.302026984442071
10,0.0001234567901234567901234567901,20,-0.785316882654717
11,0.0001493827160493827160493827160,22,0.2779454145925855
12,0.0001777777777777777777777777777,24,0.5210301164895563
13,0.0002086419753086419753086419752,26,-5.206728450381956
14,0.0002419753086419753086419753088,28,-2.2482396328329837
15,0.0002777777777777777777777777779,30,-1.0141545355518882
16,0.0003160493827160493827160493828,32,-2.585969500445761
17,0.0003567901234567901234567901235,34,-7.503831987545338
18,0.0004,36,0.0872360628164757
19,0.0004456790123456790123456790123,38,1.4617143179445373
20,0.0004938271604938271604938271604,40,0.07617557484841583
21,0.0005444444444444444444444444443,42,0.7832592414140214
22,0.0005975308641975308641975308640,44,-2.17561554595078
23,0.0006530864197530864197530864200,46,-1.8718598103320163
24,0.0007111111111111111111111111113,48,-2.8892480117088772
25,0.0007716049382716049382716049384,50,4.7926555140032985
26,0.0008345679012345679012345679013,52,2.0947679613644516
27,0.0009,54,-2.481228041905309
28,0.0009679012345679012345679012345,56,-1.678356914710285
29,0.001038271604938271604938271605,58,1.6380406618936765
30,0.001111111111111111111111111111,60,1.0385763714719298
31,0.001186419753086419753086419753,62,0.42639878524850383
32,0.001264197530864197530864197531,64,-1.6654979478786105
33,0.001344444444444444444444444445,66,-2.910276205288843
34,0.001427160493827160493827160494,68,3.646839776920377
35,0.001512345679012345679012345679,70,2.4085145348924764
36,0.0016,72,-0.061884259095090786
37,0.001690123456790123456790123457,74,-1.3280664463546676
38,0.001782716049382716049382716049,76,2.4220199818709545
39,0.001877777777777777777777777777,78,1.0848351745542968
40,0.001975308641975308641975308642,80,-2.251536279090445
41,0.002075308641975308641975308642,82,-0.8503050034979462
42,0.002177777777777777777777777778,84,-1.8767560244232215
43,0.002282716049382716049382716050,86,-1.389149955292791
44,0.002390123456790123456790123457,88,-1.822907267396397
45,0.0025,90,0.7377692434922688
46,0.002612345679012345679012345679,92,-2.105092939400874
47,0.002727160493827160493827160494,94,0.48408920807854416
48,0.002844444444444444444444444444,96,2.672465673608843
49,0.002964197530864197530864197530,98,-3.302525957379848
50,0.003086419753086419753086419754,100,1.3766428822846408
51,0.003211111111111111111111111111,102,2.6276732639253675
52,0.003338271604938271604938271605,104,1.5416290181969485
53,0.003467901234567901234567901235,106,2.403488619542252
54,0.0036,108,0.36547855013770036
55,0.003734567901234567901234567901,110,-3.255163319789172
56,0.003871604938271604938271604938,112,-0.3066475243066884
57,0.004011111111111111111111111111,114,0.7285487353249083
58,0.004153086419753086419753086419,116,2.0846854713993332
59,0.004297530864197530864197530865,118,-1.186486767477971
60,0.004444444444444444444444444445,120,-1.9049685185646439
61,0.004593827160493827160493827161,122,-2.943713572851565
62,0.004745679012345679012345679012,124,-1.3819437703478785
63,0.0049,126,1.1375619586003933
64,0.005056790123456790123456790123,128,2.1434064481696113
65,0.005216049382716049382716049382,130,0.4171383420866705
66,0.005377777777777777777777777777,132,3.7006980907830216
67,0.005541975308641975308641975308,134,0.1076992902927939
68,0.005708641975308641975308641976,136,-4.1152152481310695
69,0.005877777777777777777777777778,138,-0.969979841357826
70,0.006049382716049382716049382716,140,0.31818237818754597
71,0.006223456790123456790123456790,142,3.189467399339334
72,0.0064,144,2.3327768807239364
73,0.006579012345679012345679012345,146,-3.941770737983815
74,0.006760493827160493827160493827,148,2.692121391194118
75,0.006944444444444444444444444444,150,4.225559350474897
76,0.007130864197530864197530864197,152,2.64502111915784
77,0.007319753086419753086419753087,154,-2.551217014634171
78,0.007511111111111111111111111112,156,-0.3514878470887346
79,0.007704938271604938271604938272,158,1.2543629986151177
80,0.007901234567901234567901234568,160,3.4050269713017607
81,0.0081,162,-0.4838171191703658
82,0.008301234567901234567901234568,164,1.1523002286905313
83,0.008504938271604938271604938271,166,-2.0238000294273006
84,0.008711111111111111111111111110,168,1.7661031657484718
85,0.008919753086419753086419753086,170,3.730392167507537
86,0.009130864197530864197530864198,172,-0.9091442087248747
87,0.009344444444444444444444444445,174,2.1055482438956927
88,0.009560493827160493827160493828,176,-3.8469646923628984
89,0.009779012345679012345679012346,178,0.20947172187458468
90,0.01,180,0.15839838335799802
91,0.01022345679012345679012345679,182,-1.4165380349139824
92,0.01044938271604938271604938271,184,0.4846629194177338
93,0.01067777777777777777777777777,186,4.766733177866708
94,0.01090864197530864197530864197,188,2.249170075548159
95,0.01114197530864197530864197532,190,1.9675131298561592
96,0.01137777777777777777777777778,192,-3.764974236517715
97,0.01161604938271604938271604939,194,-1.6075615649753945
98,0.01185679012345679012345679013,196,-0.7093456531006911
99,0.0121,198,2.211818595276453
100,0.01234567901234567901234567901,200,-0.04997152787680095
101,0.01259382716049382716049382716,202,4.092800998423762
102,0.01284444444444444444444444444,204,1.1054952383076202
103,0.01309753086419753086419753085,206,-2.8350450013653785
104,0.01335308641975308641975308643,208,-0.5495671990262115
105,0.01361111111111111111111111112,210,-3.2100045765554075
106,0.01387160493827160493827160494,212,1.3442050488239403
107,0.01413456790123456790123456790,214,-0.3487641397545277
108,0.0144,216,-4.8877600720762855
109,0.01466790123456790123456790123,218,2.776684599172154
110,0.01493827160493827160493827160,220,-1.6297661249108308
111,0.01521111111111111111111111110,222,0.6804196757189466
112,0.01548641975308641975308641974,224,-2.0704141785086425
113,0.01576419753086419753086419754,226,2.1175134963383657
114,0.01604444444444444444444444445,228,-1.7628498234531136
115,0.01632716049382716049382716050,230,-0.5551910649249143
116,0.01661234567901234567901234568,232,-0.748511543761967
117,0.0169,234,1.3341303250462355
118,0.01719012345679012345679012345,236,-1.1610191288254794
119,0.01748271604938271604938271604,238,0.4159071225756783
120,0.01777777777777777777777777777,240,-0.43436554473629846
121,0.01807530864197530864197530863,242,0.09851229982382002
122,0.01837530864197530864197530865,244,-1.7895104314779988
123,0.01867777777777777777777777779,246,-0.01713175949710295
124,0.01898271604938271604938271606,248,-1.3378646636539522
125,0.01929012345679012345679012346,250,0.8880109902005959
126,0.0196,252,-1.7167294553615395
127,0.01991234567901234567901234568,254,-1.7386143849360396
128,0.02022716049382716049382716049,256,-3.364560284281779
129,0.02054444444444444444444444443,258,-1.1619298256764283
130,0.02086419753086419753086419752,260,-2.2538320241484273
131,0.02118641975308641975308641977,262,0.6056284581261364
132,0.02151111111111111111111111112,264,0.7451419330084212
133,0.02183827160493827160493827161,266,-0.15734708290584967
134,0.02216790123456790123456790124,268,-2.861741138195253
135,0.0225,270,1.4881845484997012
136,0.02283456790123456790123456790,272,-1.2375345154451824
137,0.02317160493827160493827160493,274,0.98727365275706
138,0.02351111111111111111111111110,276,0.5188921970657809
139,0.02385308641975308641975308641,278,1.9119520965669554
140,0.02419753086419753086419753088,280,-4.354179371810842
141,0.02454444444444444444444444445,282,0.09600305914748511
142,0.02489382716049382716049382717,284,2.0010777483189224
143,0.02524567901234567901234567902,286,1.8430162299716126
144,0.0256,288,1.7704841853841071
145,0.02595679012345679012345679012,290,0.19559880655368872
146,0.02631604938271604938271604938,292,-1.0815070155516062
147,0.02667777777777777777777777777,294,0.1292560931043908
148,0.02704197530864197530864197529,296,-2.4675028933642853
149,0.02740864197530864197530864199,298,-1.7465395689394674
150,0.02777777777777777777777777779,300,1.0328391050278702
151,0.02814938271604938271604938272,302,6.642769845428132
152,0.02852345679012345679012345679,304,0.8728781713083936
153,0.0289,306,2.411534907942159
154,0.02927901234567901234567901234,308,-3.000138485976634
155,0.02966049382716049382716049382,310,-1.8141105842204825
156,0.03004444444444444444444444443,312,1.5497759117624585
157,0.03043086419753086419753086418,314,3.350135072792434
158,0.03081975308641975308641975310,316,-2.741070755185943
159,0.03121111111111111111111111112,318,-1.424829284379583
160,0.03160493827160493827160493828,320,-2.4927297774020527
161,0.03200123456790123456790123457,322,-1.6785212799146654
162,0.0324,324,-2.3718952922777183
163,0.03280123456790123456790123456,326,-1.5805597392179431
164,0.03320493827160493827160493826,328,-0.2117678616092816
165,0.03361111111111111111111111110,330,-1.792672175116068
166,0.03401975308641975308641975307,332,-0.5342271805811435
167,0.03443086419753086419753086421,334,1.894128125660985
168,0.03484444444444444444444444446,336,-4.849118999169108
169,0.03526049382716049382716049384,338,1.5174072408658785
170,0.03567901234567901234567901235,340,0.9331989184013206
171,0.0361,342,-0.018333280606396014
172,0.03652345679012345679012345679,344,0.21194477133023423
173,0.03694938271604938271604938271,346,0.01862773996924265
174,0.03737777777777777777777777776,348,-0.5656308970922138
175,0.03780864197530864197530864196,350,-2.037772920222734
176,0.03824197530864197530864197533,352,1.6693773763093211
177,0.03867777777777777777777777779,354,0.4863775443878069
178,0.03911604938271604938271604939,356,-1.54812631409461
179,0.03955679012345679012345679013,358,-1.053534413996826
180,0.04,360,-1.2982803881509404
181,0.04044567901234567901234567901,362,-0.4593137523744447
182,0.04089382716049382716049382715,364,-2.899973004392883
183,0.04134444444444444444444444443,366,0.8859055382059356
184,0.04179753086419753086419753085,368,-3.4456147957416836
185,0.04225308641975308641975308644,370,-0.8140124348918246
186,0.04271111111111111111111111112,372,-2.672724668798862
187,0.04317160493827160493827160495,374,-2.2939952054430766
188,0.04363456790123456790123456791,376,-2.3494745625674343
189,0.0441,378,1.4201067719465172
190,0.04456790123456790123456790123,380,0.9062312779992462
191,0.04503827160493827160493827160,382,1.7316730171531225
192,0.04551111111111111111111111110,384,-3.029826425988221
193,0.04598641975308641975308641973,386,-3.1681403827313157
194,0.04646419753086419753086419755,388,-2.3735634489180324
195,0.04694444444444444444444444446,390,-5.123158305233766
196,0.04742716049382716049382716050,392,-2.0230456230720835
197,0.04791234567901234567901234568,394,-3.9513369762792627
198,0.0484,396,-1.0795638235977403
199,0.04889012345679012345679012345,398,-6.317334931971539
200,0.04938271604938271604938271604,400,2.1354499807159404
201,0.04987777777777777777777777776,402,0.9239301121414467
202,0.05037530864197530864197530862,404,3.8488198517292465
203,0.05087530864197530864197530866,406,0.5646744827563175
204,0.05137777777777777777777777779,408,3.847780398966477
205,0.05188271604938271604938271606,410,-1.531387768797039
206,0.05239012345679012345679012346,412,-1.3449143625746485
207,0.0529,414,2.024515419489807
208,0.05341234567901234567901234567,416,-0.5792128560713814
209,0.05392716049382716049382716048,418,-4.63663218097443
210,0.05444444444444444444444444443,420,4.6335028333346
211,0.05496419753086419753086419751,422,1.7363202247760292
212,0.05548641975308641975308641977,424,-4.469301159669096
213,0.05601111111111111111111111113,426,1.5071326361517687
214,0.05653827160493827160493827162,428,-5.208658613507217
215,0.05706790123456790123456790124,430,6.943694655908235
216,0.0576,432,3.227262426218514
217,0.05813456790123456790123456790,434,0.0350412693039079
218,0.05867160493827160493827160493,436,-0.13146234805311102
219,0.05921111111111111111111111109,438,2.6495208871156275
220,0.05975308641975308641975308640,440,4.54465022658362
221,0.06029753086419753086419753089,442,3.2344174568876585
222,0.06084444444444444444444444446,444,-2.047213874009341
223,0.06139382716049382716049382717,446,-1.5331813678589186
224,0.06194567901234567901234567902,448,-1.962129910235663
225,0.0625,450,-0.3414138239160272
226,0.06305679012345679012345679012,452,-1.9001231792221362
227,0.06361604938271604938271604937,454,-4.752570847439981
228,0.06417777777777777777777777776,456,2.784049754674128
229,0.06474197530864197530864197529,458,2.0111322347493097
230,0.06530864197530864197530864200,460,-3.2077133920957097
231,0.06587777777777777777777777779,462,-2.9857917320367044
232,0.06644938271604938271604938273,464,-1.1126397580114298
233,0.06702345679012345679012345680,466,-3.636408709065705
234,0.0676,468,-2.3409552321494242
235,0.06817901234567901234567901234,470,-2.31630589092252
236,0.06876049382716049382716049382,472,0.46076364286720445
237,0.06934444444444444444444444443,474,-1.4310636773567849
238,0.06993086419753086419753086417,476,0.5669641212078034
239,0.07051975308641975308641975311,478,-0.46284150530034834
240,0.07111111111111111111111111113,480,4.041205378806233
241,0.07170493827160493827160493828,482,2.6113065043638897
242,0.07230123456790123456790123457,484,-0.37062180091397484
243,0.0729,486,0.20061178674890168
244,0.07350123456790123456790123456,488,-0.1065068039476215
245,0.07410493827160493827160493826,490,-0.5132689304927943
246,0.07471111111111111111111111109,492,-1.1764414571266297
247,0.07531975308641975308641975306,494,-3.4851037907773543
248,0.07593086419753086419753086422,496,-0.8853176698553564
249,0.07654444444444444444444444446,498,-3.3161588170578513
250,0.07716049382716049382716049384,500,1.5712104763695687
251,0.07777901234567901234567901235,502,0.5242909042091274
252,0.0784,504,-2.180812420170958
253,0.07902345679012345679012345678,506,0.254137047711254
254,0.07964938271604938271604938270,508,-3.1958889699124198
255,0.08027777777777777777777777776,510,3.2964069735802135
256,0.08090864197530864197530864195,512,-0.106928137645015
257,0.08154197530864197530864197533,514,0.24505765569564134
258,0.08217777777777777777777777780,516,-0.5282844013493858
259,0.08281604938271604938271604940,518,-1.7664006376222878
260,0.08345679012345679012345679013,520,-3.3627898141350747
261,0.0841,522,-3.974675795002316
262,0.08474567901234567901234567901,524,-1.5214711374788266
263,0.08539382716049382716049382715,526,-0.7722687201001665
264,0.08604444444444444444444444442,528,4.108298684976209
265,0.08669753086419753086419753084,530,-2.734090167803269
266,0.08735308641975308641975308645,532,-0.6796292322267355
267,0.08801111111111111111111111113,534,-3.438367763442978
268,0.08867160493827160493827160495,536,-1.9101451630667434
269,0.08933456790123456790123456791,538,-1.2466253015029019
270,0.09,540,3.171780508595773
271,0.09066790123456790123456790123,542,-0.3929813246112919
272,0.09133827160493827160493827159,544,-2.3580927068973554
273,0.09201111111111111111111111109,546,-4.728817441510934
274,0.09268641975308641975308641973,548,0.6897012479609581
275,0.09336419753086419753086419756,550,-0.46036321093602883
276,0.09404444444444444444444444446,552,-1.10791939023911
277,0.09472716049382716049382716051,554,0.5044121876615357
278,0.09541234567901234567901234569,556,-3.3595717818522006
279,0.0961,558,0.3353712762186434
280,0.09679012345679012345679012345,560,0.0672451434111047
281,0.09748271604938271604938271604,562,2.085940834802763
282,0.09817777777777777777777777776,564,0.30707338985636046
283,0.09887530864197530864197530861,566,3.767004669924385
284,0.09957530864197530864197530867,568,-0.6296041346453771
285,0.1002777777777777777777777778,570,-1.2487481466682675
286,0.1009827160493827160493827161,572,-3.2778944735636637
287,0.1016901234567901234567901235,574,-1.6235810402098385
288,0.1024,576,3.015414148126302
289,0.1031123456790123456790123457,578,1.9370880273079212
290,0.1038271604938271604938271605,580,5.964890266695194
291,0.1045444444444444444444444444,582,5.559020554629103
292,0.1052641975308641975308641975,584,0.4881999150939599
293,0.1059864197530864197530864198,586,0.9669589954344712
294,0.1067111111111111111111111111,588,-0.7659713407397298
295,0.1074382716049382716049382716,590,-1.087883325181227
296,0.1081679012345679012345679012,592,-0.7444358331646959
297,0.1089,594,-1.4954602323348831
298,0.1096345679012345679012345679,596,-4.432178421126288
299,0.1103716049382716049382716049,598,4.847797197070312
300,0.1111111111111111111111111111,600,-6.273761583760735
301,0.1118530864197530864197530864,602,2.2933614961989286
302,0.1125975308641975308641975309,604,3.08624424544632
303,0.1133444444444444444444444445,606,-2.4492238556975066
304,0.1140938271604938271604938272,608,-0.9117937047584681
305,0.1148456790123456790123456790,610,1.5514817971606112
306,0.1156,612,-2.3519474567239196
307,0.1163567901234567901234567901,614,-0.33406195903121716
308,0.1171160493827160493827160494,616,-0.34478172056225037
309,0.1178777777777777777777777778,618,-0.8892134763365471
310,0.1186419753086419753086419753,620,0.7751127420184478
311,0.1194086419753086419753086420,622,-1.7462152053323978
312,0.1201777777777777777777777778,624,3.203347744160467
313,0.1209493827160493827160493827,626,4.299623705238542
314,0.1217234567901234567901234568,628,1.5782077364667004
315,0.1225,630,-1.564060324600774
316,0.1232790123456790123456790123,632,0.5289921731353648
317,0.1240604938271604938271604938,634,2.4075612792711882
318,0.1248444444444444444444444444,636,2.9024949739337984
319,0.1256308641975308641975308642,638,2.2797462027181474
320,0.1264197530864197530864197531,640,0.33541402611748156
321,0.1272111111111111111111111111,642,1.3751403625989924
322,0.1280049382716049382716049383,644,-5.004678937529045
323,0.1288012345679012345679012346,646,0.9886457124176435
324,0.1296,648,-1.854814506269167
325,0.1304012345679012345679012346,650,0.13253939503802697
326,0.1312049382716049382716049383,652,2.70775385501242
327,0.1320111111111111111111111111,654,1.262646283916812
328,0.1328197530864197530864197531,656,-2.71035241962919
329,0.1336308641975308641975308642,658,-1.3871994672267407
330,0.1344444444444444444444444445,660,-2.2798616159512193
331,0.1352604938271604938271604938,662,-4.581111028522315
332,0.1360790123456790123456790124,664,0.509134363800648
333,0.1369,666,-0.6645217269986519
334,0.1377234567901234567901234568,668,-2.4507375364366903
335,0.1385493827160493827160493827,670,-1.0483465877124687
336,0.1393777777777777777777777778,672,2.0637126710214444
337,0.1402086419753086419753086419,674,3.431970430457612
338,0.1410419753086419753086419753,676,2.4832368069313273
339,0.1418777777777777777777777778,678,-0.29031524637387224
340,0.1427160493827160493827160494,680,-2.692285640848619
341,0.1435567901234567901234567901,682,2.800535757152729
342,0.1444,684,0.32744725382681666
343,0.1452456790123456790123456790,686,-0.08553068932099038
344,0.1460938271604938271604938271,688,0.28130063105995234
345,0.1469444444444444444444444444,690,-2.935607626243917
346,0.1477975308641975308641975308,692,-0.16022260188065032
347,0.1486530864197530864197530865,694,2.8366412427279215
348,0.1495111111111111111111111111,696,0.4568290088055129
349,0.1503716049382716049382716050,698,-0.2348112515522235
350,0.1512345679012345679012345679,700,0.6764521468913379
351,0.1521,702,4.443464352366676
352,0.1529679012345679012345679012,704,-1.4111021546527833
353,0.1538382716049382716049382716,706,1.0736777950246896
354,0.1547111111111111111111111111,708,-3.3519708822641716
