,Mass (amu),Time (microseconds),Amplitude
0,0,0,-0.738467536404884
1,0.000001234567901234567901234567901,2,-0.6525427707142033
2,0.000004938271604938271604938271604,4,4.64426962761048
3,0.00001111111111111111111111111111,6,3.490012624691972
4,0.00001975308641975308641975308642,8,2.2457473994334736
5,0.00003086419753086419753086419754,10,2.0084207801932026
6,0.00004444444444444444444444444445,12,-2.5018542072525
7,0.00006049382716049382716049382716,14,0.24311056995603492
8,0.00007901234567901234567901234568,16,-0.4959523925930793
9,0.0001,18,-2.2340079582084935
10,0.0001234567901234567901234567901,20,-0.8194025893758914
11,0.0001493827160493827160493827160,22,1.3917716070712494
12,0.0001777777777777777777777777777,24,-2.346443383104945
13,0.0002086419753086419753086419752,26,0.19949316442482326
14,0.0002419753086419753086419753088,28,1.4983757618883522
15,0.0002777777777777777777777777779,30,-3.2727794398675822
16,0.0003160493827160493827160493828,32,1.1593724214873506
17,0.0003567901234567901234567901235,34,-0.6537299186719194
18,0.0004,36,-2.207728404466408
19,0.0004456790123456790123456790123,38,0.11495344215781489
20,0.0004938271604938271604938271604,40,1.038851951288553
21,0.0005444444444444444444444444443,42,-1.4238345284805831
22,0.0005975308641975308641975308640,44,-1.5922265411498202
23,0.0006530864197530864197530864200,46,0.5459368357652539
24,0.0007111111111111111111111111113,48,2.941850368902035
25,0.0007716049382716049382716049384,50,-1.7137594570264307
26,0.0008345679012345679012345679013,52,-2.295396150610507
27,0.0009,54,-0.023524528907600588
28,0.0009679012345679012345679012345,56,1.352154709054334
29,0.001038271604938271604938271605,58,0.9284182412246742
30,0.001111111111111111111111111111,60,-1.923651408878343
31,0.001186419753086419753086419753,62,3.4741398259724545
32,0.001264197530864197530864197531,64,-2.558672594538578
33,0.001344444444444444444444444445,66,1.9821333496840554
34,0.001427160493827160493827160494,68,-0.7904253002081606
35,0.001512345679012345679012345679,70,-0.06049936358134362
36,0.0016,72,0.9178103742499385
37,0.001690123456790123456790123457,74,-1.4089142560850447
38,0.001782716049382716049382716049,76,-0.6856186779296544
39,0.001877777777777777777777777777,78,4.629622199129786
40,0.001975308641975308641975308642,80,-1.7806824254932525
41,0.002075308641975308641975308642,82,2.1489201028837344
42,0.002177777777777777777777777778,84,1.8734406865157498
43,0.002282716049382716049382716050,86,-1.873462807307064
44,0.002390123456790123456790123457,88,1.9243367950946704
45,0.0025,90,0.7348474769291347
46,0.002612345679012345679012345679,92,2.014166953297749
47,0.002727160493827160493827160494,94,-1.162581931819253
48,0.002844444444444444444444444444,96,1.4875456048772688
49,0.002964197530864197530864197530,98,4.510619370133011
50,0.003086419753086419753086419754,100,2.9641169769903395
51,0.003211111111111111111111111111,102,-3.3805819731027142
52,0.003338271604938271604938271605,104,-1.7401275783600902
53,0.003467901234567901234567901235,106,1.3667395713345092
54,0.0036,108,-0.46453871712502165
55,0.003734567901234567901234567901,110,0.5645556189738141
56,0.003871604938271604938271604938,112,-4.780676847349253
57,0.004011111111111111111111111111,114,3.65834410804324
58,0.004153086419753086419753086419,116,0.06909587398702273
59,0.004297530864197530864197530865,118,-2.9263352454134455
60,0.004444444444444444444444444445,120,0.25258491233865804
61,0.004593827160493827160493827161,122,-2.0256415649622497
62,0.004745679012345679012345679012,124,-0.5568187876786175
63,0.0049,126,0.6566628787526401
64,0.005056790123456790123456790123,128,-0.1503357533392877
65,0.005216049382716049382716049382,130,1.7621137271340392
66,0.005377777777777777777777777777,132,3.6901869682163175
67,0.005541975308641975308641975308,134,0.7625983421858253
68,0.005708641975308641975308641976,136,-1.3647432004566729
69,0.005877777777777777777777777778,138,0.7920969243533404
70,0.006049382716049382716049382716,140,-2.9737460695232465
71,0.006223456790123456790123456790,142,-0.06819328519559612
72,0.0064,144,-1.0500202573753874
73,0.006579012345679012345679012345,146,1.2886487994981548
74,0.006760493827160493827160493827,148,3.1379954885459402
75,0.006944444444444444444444444444,150,0.38904030300253445
76,0.007130864197530864197530864197,152,-0.18789963552473943
77,0.007319753086419753086419753087,154,1.5361786713456076
78,0.007511111111111111111111111112,156,2.8222139940944557
79,0.007704938271604938271604938272,158,0.7941458998598517
80,0.007901234567901234567901234568,160,0.3855267185549808
81,0.0081,162,2.9485568964190403
82,0.008301234567901234567901234568,164,-2.734108375768984
83,0.008504938271604938271604938271,166,3.76363340922992
84,0.008711111111111111111111111110,168,0.48076787623438333
85,0.008919753086419753086419753086,170,2.1548770652161577
86,0.009130864197530864197530864198,172,2.900945481650678
87,0.009344444444444444444444444445,174,0.9822973048619286
88,0.009560493827160493827160493828,176,-1.3801453656797507
89,0.009779012345679012345679012346,178,2.6221970320702686
90,0.01,180,0.8355499597566871
91,0.01022345679012345679012345679,182,2.263248882153986
92,0.01044938271604938271604938271,184,-0.04047690270829845
93,0.01067777777777777777777777777,186,3.405670868373462
94,0.01090864197530864197530864197,188,1.3696306766070976
95,0.01114197530864197530864197532,190,2.05874482758698
96,0.01137777777777777777777777778,192,4.865632214142035
97,0.01161604938271604938271604939,194,-5.21268471149101
98,0.01185679012345679012345679013,196,1.0490798785014603
99,0.0121,198,0.3099491519253433
100,0.01234567901234567901234567901,200,-2.0145977401139663
101,0.01259382716049382716049382716,202,-2.4553153567335118
102,0.01284444444444444444444444444,204,-0.5034475407691631
103,0.01309753086419753086419753085,206,-4.835666050111289
104,0.01335308641975308641975308643,208,-3.2017247633379
105,0.01361111111111111111111111112,210,-0.9738938272546653
106,0.01387160493827160493827160494,212,1.9396163208447843
107,0.01413456790123456790123456790,214,0.7319095291433066
108,0.0144,216,-0.24335198389951276
109,0.01466790123456790123456790123,218,0.42643936958724477
110,0.01493827160493827160493827160,220,-1.9571986822781993
111,0.01521111111111111111111111110,222,-3.2641237663179643
112,0.01548641975308641975308641974,224,2.701069725347125
113,0.01576419753086419753086419754,226,4.595241973712351
114,0.01604444444444444444444444445,228,1.122884032657113
115,0.01632716049382716049382716050,230,0.49357779093804244
116,0.01661234567901234567901234568,232,-0.9498422352432205
117,0.0169,234,1.7115454948159976
118,0.01719012345679012345679012345,236,-4.3200972991205315
119,0.01748271604938271604938271604,238,-1.9699097268047396
120,0.01777777777777777777777777777,240,2.3641404593527175
121,0.01807530864197530864197530863,242,1.763573164602187
122,0.01837530864197530864197530865,244,-0.6940841646960232
123,0.01867777777777777777777777779,246,0.8197381309739521
124,0.01898271604938271604938271606,248,2.996207110191522
125,0.01929012345679012345679012346,250,0.11229620472299193
126,0.0196,252,-2.983965370511639
127,0.01991234567901234567901234568,254,1.0752152680117222
128,0.02022716049382716049382716049,256,0.2186457513975373
129,0.02054444444444444444444444443,258,1.2972502325641455
130,0.02086419753086419753086419752,260,0.3525742094401061
131,0.02118641975308641975308641977,262,1.9886640319794857
132,0.02151111111111111111111111112,264,0.784819910152989
133,0.02183827160493827160493827161,266,-0.9392099058199758
134,0.02216790123456790123456790124,268,0.6329865747274103
135,0.0225,270,1.5517299619366574
136,0.02283456790123456790123456790,272,-3.2313549317746886
137,0.02317160493827160493827160493,274,0.138126674896026
138,0.02351111111111111111111111110,276,2.0409273808852832
139,0.02385308641975308641975308641,278,0.9798635067298682
140,0.02419753086419753086419753088,280,-0.09454527930722917
141,0.02454444444444444444444444445,282,-2.8016347306479226
142,0.02489382716049382716049382717,284,-4.252684181081694
143,0.02524567901234567901234567902,286,-2.361540644212794
144,0.0256,288,-4.413835478960389
145,0.02595679012345679012345679012,290,2.6603696612391574
146,0.02631604938271604938271604938,292,-1.4205690201433332
147,0.02667777777777777777777777777,294,-0.7542273741245367
148,0.02704197530864197530864197529,296,3.38218255944492
149,0.02740864197530864197530864199,298,-2.1258140229157365
150,0.02777777777777777777777777779,300,-1.6732635793257478
151,0.02814938271604938271604938272,302,-1.7918415623244779
152,0.02852345679012345679012345679,304,0.5333073652826713
153,0.0289,306,0.49408268267434585
154,0.02927901234567901234567901234,308,-0.1819477527740589
155,0.02966049382716049382716049382,310,2.3865270350543657
156,0.03004444444444444444444444443,312,1.5577155219870973
157,0.03043086419753086419753086418,314,1.9875346492635564
158,0.03081975308641975308641975310,316,0.9779633047715355
159,0.03121111111111111111111111112,318,1.819222721541568
160,0.03160493827160493827160493828,320,1.0162949751291106
161,0.03200123456790123456790123457,322,2.6869125711541972
162,0.0324,324,0.7982556501786903
163,0.03280123456790123456790123456,326,3.29317971758316
164,0.03320493827160493827160493826,328,0.229443244811567
165,0.03361111111111111111111111110,330,2.6645840001936976
166,0.03401975308641975308641975307,332,-0.14997666624593795
167,0.03443086419753086419753086421,334,-0.4991816744178357
168,0.03484444444444444444444444446,336,-3.913406296101607
169,0.03526049382716049382716049384,338,1.6754785512482386
170,0.03567901234567901234567901235,340,-1.7081123600602681
171,0.0361,342,0.9660865075933882
172,0.03652345679012345679012345679,344,-0.33236100856293777
173,0.03694938271604938271604938271,346,0.7160699960619661
174,0.03737777777777777777777777776,348,-0.03563491332640816
175,0.03780864197530864197530864196,350,-1.2890695430820693
176,0.03824197530864197530864197533,352,-0.8941399486996734
177,0.03867777777777777777777777779,354,2.2628605134760025
178,0.03911604938271604938271604939,356,-1.690978118230787
179,0.03955679012345679012345679013,358,-3.6618664433018475
180,0.04,360,-3.73938960284345
181,0.04044567901234567901234567901,362,0.24426157534663054
182,0.04089382716049382716049382715,364,0.7476561459386881
183,0.04134444444444444444444444443,366,0.9434251144660425
184,0.04179753086419753086419753085,368,-0.4717249063859062
185,0.04225308641975308641975308644,370,-1.81641193540746
186,0.04271111111111111111111111112,372,0.9432509577588428
187,0.04317160493827160493827160495,374,-3.0386656950006783
188,0.04363456790123456790123456791,376,-4.081483678958356
189,0.0441,378,-1.1791543054618598
190,0.04456790123456790123456790123,380,-3.1236376719388335
191,0.04503827160493827160493827160,382,1.1006753142904475
192,0.04551111111111111111111111110,384,2.0763215054446507
193,0.04598641975308641975308641973,386,0.2812547188218462
194,0.04646419753086419753086419755,388,4.012852935418693
195,0.04694444444444444444444444446,390,-2.3094410006022983
196,0.04742716049382716049382716050,392,2.1363107238627963
197,0.04791234567901234567901234568,394,-1.9482428321854277
198,0.0484,396,-0.08656858336054261
199,0.04889012345679012345679012345,398,-1.1993774032948636
200,0.04938271604938271604938271604,400,-1.3062076195582168
201,0.04987777777777777777777777776,402,-0.47397344655689727
202,0.05037530864197530864197530862,404,-3.353680454161991
203,0.05087530864197530864197530866,406,2.1762359608968187
204,0.05137777777777777777777777779,408,2.1567173661119257
205,0.05188271604938271604938271606,410,1.3491463269873702
206,0.05239012345679012345679012346,412,-1.030162071923927
207,0.0529,414,-0.6303860634977748
208,0.05341234567901234567901234567,416,-1.2735271171432323
209,0.05392716049382716049382716048,418,-5.171218765802968
210,0.05444444444444444444444444443,420,4.09044026731302
211,0.05496419753086419753086419751,422,-1.3468371943775919
212,0.05548641975308641975308641977,424,1.095757277106672
213,0.05601111111111111111111111113,426,6.310755901703412
214,0.05653827160493827160493827162,428,3.135847574376924
215,0.05706790123456790123456790124,430,3.4890594838575937
216,0.0576,432,-2.4212483432501655
217,0.05813456790123456790123456790,434,5.967048512366939
218,0.05867160493827160493827160493,436,-0.8575837047337384
219,0.05921111111111111111111111109,438,0.8659848408207454
220,0.05975308641975308641975308640,440,-4.587868691701393
221,0.06029753086419753086419753089,442,-0.03534187511895015
222,0.06084444444444444444444444446,444,-0.1284645366873363
223,0.06139382716049382716049382717,446,1.7817308472406241
224,0.06194567901234567901234567902,448,2.0390853692986255
225,0.0625,450,-0.7722914779262596
226,0.06305679012345679012345679012,452,-2.0544888709921403
227,0.06361604938271604938271604937,454,0.29573681377662847
228,0.06417777777777777777777777776,456,-0.6782404701014364
229,0.06474197530864197530864197529,458,-0.9132500259190403
230,0.06530864197530864197530864200,460,-2.8109179461385683
231,0.06587777777777777777777777779,462,2.9320312029603413
232,0.06644938271604938271604938273,464,2.544137314055369
233,0.06702345679012345679012345680,466,-2.552558298572041
234,0.0676,468,-1.3743139309235883
235,0.06817901234567901234567901234,470,1.5159944802269056
236,0.06876049382716049382716049382,472,-2.0604395556283404
237,0.06934444444444444444444444443,474,-0.17116010594791414
238,0.06993086419753086419753086417,476,1.3114214884155695
239,0.07051975308641975308641975311,478,-0.3348933169968592
240,0.07111111111111111111111111113,480,-4.01725854931659
241,0.07170493827160493827160493828,482,-2.517761475744275
242,0.07230123456790123456790123457,484,1.3932251798704633
243,0.0729,486,4.576792803754975
244,0.07350123456790123456790123456,488,0.7452588584173908
245,0.07410493827160493827160493826,490,0.3547847782527594
246,0.07471111111111111111111111109,492,-0.8920090597063526
247,0.07531975308641975308641975306,494,-1.8148686254433217
248,0.07593086419753086419753086422,496,4.1953352044345875
249,0.07654444444444444444444444446,498,-1.9639209796443844
250,0.07716049382716049382716049384,500,1.7286972010388526
251,0.07777901234567901234567901235,502,1.389489741014534
252,0.0784,504,-0.1726657295914589
253,0.07902345679012345679012345678,506,-2.2038554349546864
254,0.07964938271604938271604938270,508,2.7967293933189077
255,0.08027777777777777777777777776,510,0.7395811649365351
256,0.08090864197530864197530864195,512,-1.9090977227297388
257,0.08154197530864197530864197533,514,-0.9286131320231635
258,0.08217777777777777777777777780,516,-2.65748777905402
259,0.08281604938271604938271604940,518,1.3033675518403132
260,0.08345679012345679012345679013,520,-0.4912884598256236
261,0.0841,522,-1.9417433726540707
262,0.08474567901234567901234567901,524,-0.4333885009671013
263,0.08539382716049382716049382715,526,-0.8579205710575728
264,0.08604444444444444444444444442,528,-3.100055675562847
265,0.08669753086419753086419753084,530,-1.5839451746687339
266,0.08735308641975308641975308645,532,2.3237306353044587
267,0.08801111111111111111111111113,534,-3.135465097810812
268,0.08867160493827160493827160495,536,2.327590195346194
269,0.08933456790123456790123456791,538,-1.1374985040583674
270,0.09,540,-2.810017738962995
271,0.09066790123456790123456790123,542,-3.2450710092655504
272,0.09133827160493827160493827159,544,-4.130061828709237
273,0.09201111111111111111111111109,546,-0.4337362010915585
274,0.09268641975308641975308641973,548,0.9200724371830108
275,0.09336419753086419753086419756,550,-3.852764192838368
276,0.09404444444444444444444444446,552,-1.8736376539190471
277,0.09472716049382716049382716051,554,2.7294335631204643
278,0.09541234567901234567901234569,556,-1.208843862134421
279,0.0961,558,-3.5888668852498022
280,0.09679012345679012345679012345,560,0.2757715307280816
281,0.09748271604938271604938271604,562,0.1109410837965523
282,0.09817777777777777777777777776,564,0.8741297102359747
283,0.09887530864197530864197530861,566,6.223694003607049
284,0.09957530864197530864197530867,568,1.9592277505467472
285,0.1002777777777777777777777778,570,0.8280586182158525
286,0.1009827160493827160493827161,572,-5.199867154244527
287,0.1016901234567901234567901235,574,1.5614703634636102
288,0.1024,576,-1.1173270015319634
289,0.1031123456790123456790123457,578,0.8176524896523312
290,0.1038271604938271604938271605,580,-1.0102733600476488
291,0.1045444444444444444444444444,582,0.2082709063750552
292,0.1052641975308641975308641975,584,-1.0481638612195219
293,0.1059864197530864197530864198,586,1.269425440066579
294,0.1067111111111111111111111111,588,-1.6570597234789264
295,0.1074382716049382716049382716,590,1.280108530446194
296,0.1081679012345679012345679012,592,2.299948289884876
297,0.1089,594,2.783993494435509
298,0.1096345679012345679012345679,596,-3.546102495017786
299,0.1103716049382716049382716049,598,-1.2091088052587897
300,0.1111111111111111111111111111,600,0.46148002324243953
301,0.1118530864197530864197530864,602,0.997672123262742
302,0.1125975308641975308641975309,604,-0.6243048405110494
303,0.1133444444444444444444444445,606,-3.4844925327073746
304,0.1140938271604938271604938272,608,-2.9940043885399814
305,0.1148456790123456790123456790,610,-3.317168089218505
306,0.1156,612,-3.1024784331477795
307,0.1163567901234567901234567901,614,2.0943945172823653
308,0.1171160493827160493827160494,616,-0.05274625192689067
309,0.1178777777777777777777777778,618,-2.3950519000270587
310,0.1186419753086419753086419753,620,-2.589975111187578
311,0.1194086419753086419753086420,622,0.9539513417733165
312,0.1201777777777777777777777778,624,0.1416403151257531
313,0.1209493827160493827160493827,626,2.2215672040319725
314,0.1217234567901234567901234568,628,1.621347252737719
315,0.1225,630,-2.22776339114692
316,0.1232790123456790123456790123,632,-2.4400576585810336
317,0.1240604938271604938271604938,634,2.8017287158933546
318,0.1248444444444444444444444444,636,1.0425974242027516
319,0.1256308641975308641975308642,638,2.116041401039235
320,0.1264197530864197530864197531,640,1.019383554257751
321,0.1272111111111111111111111111,642,2.4912640305075473
322,0.1280049382716049382716049383,644,-0.3569455877410689
323,0.1288012345679012345679012346,646,0.5267374204289778
324,0.1296,648,1.6116374761821965
325,0.1304012345679012345679012346,650,2.867074580819989
326,0.1312049382716049382716049383,652,-0.673733261926083
327,0.1320111111111111111111111111,654,0.5686951239872424
328,0.1328197530864197530864197531,656,-2.97895351507168
329,0.1336308641975308641975308642,658,-3.0269161958141826
330,0.1344444444444444444444444445,660,1.1075921752261821
331,0.1352604938271604938271604938,662,0.11341790589096118
332,0.1360790123456790123456790124,664,-0.5212199128949072
333,0.1369,666,3.4153871251510286
334,0.1377234567901234567901234568,668,2.5832684784053512
335,0.1385493827160493827160493827,670,1.7913758059086649
336,0.1393777777777777777777777778,672,1.0873887098996302
337,0.1402086419753086419753086419,674,2.8325218817464224
338,0.1410419753086419753086419753,676,-0.8879914611889552
339,0.1418777777777777777777777778,678,3.971061970930304
340,0.1427160493827160493827160494,680,2.6430061939254266
341,0.1435567901234567901234567901,682,-0.8592440232012148
342,0.1444,684,2.345685213591134
343,0.1452456790123456790123456790,686,-0.5999590214273551
344,0.1460938271604938271604938271,688,-2.476740595268626
345,0.1469444444444444444444444444,690,0.49651097203143446
346,0.1477975308641975308641975308,692,0.4661431223352334
347,0.1486530864197530864197530865,694,-1.2407315713698532
348,0.1495111111111111111111111111,696,0.5596284624328758
349,0.1503716049382716049382716050,698,2.3484999894663265
350,0.1512345679012345679012345679,700,1.3469295211471892
351,0.1521,702,3.6027127235209986
352,0.1529679012345679012345679012,704,0.49387848187047867
353,0.1538382716049382716049382716,706,0.18328399897011596
354,0.1547111111111111111111111111,708,5.216502700304204
