,Mass (amu),Time (microseconds),Amplitude
0,0,0,-2.0245739456665603
1,0.000001234567901234567901234567901,2,2.247828710864561
2,0.000004938271604938271604938271604,4,-1.9994257269283924
3,0.00001111111111111111111111111111,6,2.222205986917258
4,0.00001975308641975308641975308642,8,0.5078289418929259
5,0.00003086419753086419753086419754,10,0.3172427780994733
6,0.00004444444444444444444444444445,12,2.9766969845433793
7,0.00006049382716049382716049382716,14,0.4227184687877052
8,0.00007901234567901234567901234568,16,3.868717525502821
9,0.0001,18,1.1811844549340378
10,0.0001234567901234567901234567901,20,2.878254331149425
11,0.0001493827160493827160493827160,22,-1.9241740428409906
12,0.0001777777777777777777777777777,24,2.5179983722991883
13,0.0002086419753086419753086419752,26,3.480899340358604
14,0.0002419753086419753086419753088,28,2.3899906108530318
15,0.0002777777777777777777777777779,30,0.37677308692771866
16,0.0003160493827160493827160493828,32,-1.4949708770581798
17,0.0003567901234567901234567901235,34,2.056457693966469
18,0.0004,36,-3.374664506714148
19,0.0004456790123456790123456790123,38,0.1316334622253284
20,0.0004938271604938271604938271604,40,-0.10359267390573547
21,0.0005444444444444444444444444443,42,-1.0980882243733074
22,0.0005975308641975308641975308640,44,-1.3934798001849171
23,0.0006530864197530864197530864200,46,-0.20442636724495192
24,0.0007111111111111111111111111113,48,4.133379354223746
25,0.0007716049382716049382716049384,50,-1.1293550544702022
26,0.0008345679012345679012345679013,52,-2.302888318756579
27,0.0009,54,-0.22135071460905317
28,0.0009679012345679012345679012345,56,-1.8317690099553658
29,0.001038271604938271604938271605,58,-0.257705464487209
30,0.001111111111111111111111111111,60,1.1339451825977653
31,0.001186419753086419753086419753,62,2.040963959009046
32,0.001264197530864197530864197531,64,2.43582646938721
33,0.001344444444444444444444444445,66,0.974722386425482
34,0.001427160493827160493827160494,68,0.5777026279887568
35,0.001512345679012345679012345679,70,1.7015128375048332
36,0.0016,72,0.3933073319907789
37,0.001690123456790123456790123457,74,1.7638863076619777
38,0.001782716049382716049382716049,76,-1.7032277995415408
39,0.001877777777777777777777777777,78,-0.6649946509057572
40,0.001975308641975308641975308642,80,2.9974903323280766
41,0.002075308641975308641975308642,82,2.374351967482471
42,0.002177777777777777777777777778,84,-0.8264894705597026
43,0.002282716049382716049382716050,86,-0.8585968552697013
44,0.002390123456790123456790123457,88,-0.06911287744232139
45,0.0025,90,2.004219520011995
46,0.002612345679012345679012345679,92,-0.2543542672701943
47,0.002727160493827160493827160494,94,-0.6078061203243659
48,0.002844444444444444444444444444,96,-4.9674560167417114
49,0.002964197530864197530864197530,98,3.056371003543146
50,0.003086419753086419753086419754,100,3.262571063920745
51,0.003211111111111111111111111111,102,-4.863689009100359
52,0.003338271604938271604938271605,104,2.1710788952593685
53,0.003467901234567901234567901235,106,2.134359565813466
54,0.0036,108,-4.123550408140661
55,0.003734567901234567901234567901,110,-1.047907138716572
56,0.003871604938271604938271604938,112,-0.06781635418479137
57,0.004011111111111111111111111111,114,-1.170470278360034
58,0.004153086419753086419753086419,116,1.8823937567488591
59,0.004297530864197530864197530865,118,-3.762585929112056
60,0.004444444444444444444444444445,120,0.7685267294430893
61,0.004593827160493827160493827161,122,-3.0134187079864803
62,0.004745679012345679012345679012,124,-2.5923589359646275
63,0.0049,126,0.4414333534187805
64,0.005056790123456790123456790123,128,3.5227011834333473
65,0.005216049382716049382716049382,130,0.6119096081583962
66,0.005377777777777777777777777777,132,-2.0272298895278866
67,0.005541975308641975308641975308,134,-0.35608672220876847
68,0.005708641975308641975308641976,136,-1.2179750125316804
69,0.005877777777777777777777777778,138,-1.6728426185353824
70,0.006049382716049382716049382716,140,2.443714551921186
71,0.006223456790123456790123456790,142,0.21832851489916077
72,0.0064,144,-0.7390512004236051
73,0.006579012345679012345679012345,146,-0.16264121382164962
74,0.006760493827160493827160493827,148,1.7108100165043538
75,0.006944444444444444444444444444,150,4.153348019654849
76,0.007130864197530864197530864197,152,3.3977807076203885
77,0.007319753086419753086419753087,154,-0.8902731624171409
78,0.007511111111111111111111111112,156,1.5802644287303038
79,0.007704938271604938271604938272,158,-3.37153012568587
80,0.007901234567901234567901234568,160,-2.4600016601898624
81,0.0081,162,-2.376030424836981
82,0.008301234567901234567901234568,164,-2.2511200596330068
83,0.008504938271604938271604938271,166,-0.02657677513912882
84,0.008711111111111111111111111110,168,-2.757754931839729
85,0.008919753086419753086419753086,170,1.0867483325843448
86,0.009130864197530864197530864198,172,1.313408947740944
87,0.009344444444444444444444444445,174,-1.7973498566209347
88,0.009560493827160493827160493828,176,-0.9637413908632415
89,0.009779012345679012345679012346,178,2.5980516964840583
90,0.01,180,2.542218682471881
91,0.01022345679012345679012345679,182,-0.7544401225500336
92,0.01044938271604938271604938271,184,2.044209971439497
93,0.01067777777777777777777777777,186,-2.6274516046363052
94,0.01090864197530864197530864197,188,1.2194668813010516
95,0.01114197530864197530864197532,190,1.4298520603363938
96,0.01137777777777777777777777778,192,-0.5414392667268738
97,0.01161604938271604938271604939,194,-0.1456482739737927
98,0.01185679012345679012345679013,196,-0.6624182734288944
99,0.0121,198,2.8734841441095855
100,0.01234567901234567901234567901,200,-0.8820789264308587
101,0.01259382716049382716049382716,202,1.8748279989174175
102,0.01284444444444444444444444444,204,-3.37821224666551
103,0.01309753086419753086419753085,206,-3.5095506377621066
104,0.01335308641975308641975308643,208,-0.6450222778382906
105,0.01361111111111111111111111112,210,-5.1361002872512715
106,0.01387160493827160493827160494,212,-0.21162586730964758
107,0.01413456790123456790123456790,214,3.7396765050220018
108,0.0144,216,1.4083900808294483
109,0.01466790123456790123456790123,218,0.10909747661418287
110,0.01493827160493827160493827160,220,3.269380950284454
111,0.01521111111111111111111111110,222,-1.40869432682803
112,0.01548641975308641975308641974,224,-1.5184456641329493
113,0.01576419753086419753086419754,226,-0.4829032699868532
114,0.01604444444444444444444444445,228,-0.13456152328346754
115,0.01632716049382716049382716050,230,-0.5850893520056961
116,0.01661234567901234567901234568,232,-0.24436206486720746
117,0.0169,234,-4.616468379613577
118,0.01719012345679012345679012345,236,3.488609818070205
119,0.01748271604938271604938271604,238,0.35832327812372594
120,0.01777777777777777777777777777,240,-4.652825682121425
121,0.01807530864197530864197530863,242,0.8799646615133595
122,0.01837530864197530864197530865,244,-0.6114482915251424
123,0.01867777777777777777777777779,246,4.314334233968175
124,0.01898271604938271604938271606,248,-0.5690402387931086
125,0.01929012345679012345679012346,250,2.0632260606664685
126,0.0196,252,-1.4924008426585553
127,0.01991234567901234567901234568,254,-2.5090204546157726
128,0.02022716049382716049382716049,256,-1.9422558481943986
129,0.02054444444444444444444444443,258,4.025956361240214
130,0.02086419753086419753086419752,260,-1.34720631032491
131,0.02118641975308641975308641977,262,0.3774320298405208
132,0.02151111111111111111111111112,264,-0.13491980204353107
133,0.02183827160493827160493827161,266,-4.4609746587802
134,0.02216790123456790123456790124,268,2.6014576064799435
135,0.0225,270,1.788967221224479
136,0.02283456790123456790123456790,272,-2.233213462004335
137,0.02317160493827160493827160493,274,2.0839290659204557
138,0.02351111111111111111111111110,276,1.7808400007086895
139,0.02385308641975308641975308641,278,1.1013428552126203
140,0.02419753086419753086419753088,280,-0.3134792880863529
141,0.02454444444444444444444444445,282,4.645500129014178
142,0.02489382716049382716049382717,284,1.2675041371581879
143,0.02524567901234567901234567902,286,-2.3389844952989103
144,0.0256,288,1.0632653101956986
145,0.02595679012345679012345679012,290,-1.6341089836396017
146,0.02631604938271604938271604938,292,0.5173053009293541
147,0.02667777777777777777777777777,294,-1.2141605042779207
148,0.02704197530864197530864197529,296,-4.2559710125409325
149,0.02740864197530864197530864199,298,-1.6941900427057468
150,0.02777777777777777777777777779,300,0.63726457243866
151,0.02814938271604938271604938272,302,-0.23685999209558783
152,0.02852345679012345679012345679,304,-2.962899814545211
153,0.0289,306,-3.73554177339736
154,0.02927901234567901234567901234,308,1.385433923526004
155,0.02966049382716049382716049382,310,0.6414486568686745
156,0.03004444444444444444444444443,312,-1.1511064122508752
157,0.03043086419753086419753086418,314,-3.8345363471820684
158,0.03081975308641975308641975310,316,1.000222671532433
159,0.03121111111111111111111111112,318,4.444039075580963
160,0.03160493827160493827160493828,320,0.6040077633267786
161,0.03200123456790123456790123457,322,-1.0079579271732677
162,0.0324,324,4.211505840677367
163,0.03280123456790123456790123456,326,-1.622621638134756
164,0.03320493827160493827160493826,328,2.1184887197584965
165,0.03361111111111111111111111110,330,3.2838292599306755
166,0.03401975308641975308641975307,332,0.45498884893816477
167,0.03443086419753086419753086421,334,3.146668548198696
168,0.03484444444444444444444444446,336,-2.46371248235121
169,0.03526049382716049382716049384,338,1.2237055001395927
170,0.03567901234567901234567901235,340,-1.678361580681281
171,0.0361,342,-0.4562417947201097
172,0.03652345679012345679012345679,344,-0.3118287979249961
173,0.03694938271604938271604938271,346,-0.3822001229259299
174,0.03737777777777777777777777776,348,-3.6899170557024763
175,0.03780864197530864197530864196,350,2.647612157188946
176,0.03824197530864197530864197533,352,-1.6373321938522902
177,0.03867777777777777777777777779,354,-1.501593578296966
178,0.03911604938271604938271604939,356,3.2252114491186425
179,0.03955679012345679012345679013,358,1.3746763023122803
180,0.04,360,-3.8513695589135093
181,0.04044567901234567901234567901,362,1.835405227950888
182,0.04089382716049382716049382715,364,-0.885205015923825
183,0.04134444444444444444444444443,366,7.389725174717529
184,0.04179753086419753086419753085,368,-1.7986898464800505
185,0.04225308641975308641975308644,370,-2.2299259780302685
186,0.04271111111111111111111111112,372,6.902536822135359
187,0.04317160493827160493827160495,374,-0.12075896915791862
188,0.04363456790123456790123456791,376,2.516707913256658
189,0.0441,378,3.1815062090672828
190,0.04456790123456790123456790123,380,0.10635468228902244
191,0.04503827160493827160493827160,382,2.9751434776091825
192,0.04551111111111111111111111110,384,-2.0835166170196273
193,0.04598641975308641975308641973,386,0.8625283645750136
194,0.04646419753086419753086419755,388,1.5491811903396817
195,0.04694444444444444444444444446,390,0.5243290470472931
196,0.04742716049382716049382716050,392,-0.5068794440403135
197,0.04791234567901234567901234568,394,1.5060430551794866
198,0.0484,396,1.5943735278674864
199,0.04889012345679012345679012345,398,-0.7878937335013702
200,0.04938271604938271604938271604,400,3.1846413841951673
201,0.04987777777777777777777777776,402,-0.93942919433648
202,0.05037530864197530864197530862,404,-0.8189903892183227
203,0.05087530864197530864197530866,406,2.2790646513386164
204,0.05137777777777777777777777779,408,0.7310573823178278
205,0.05188271604938271604938271606,410,-0.27771537031965726
206,0.05239012345679012345679012346,412,0.02236164427713677
207,0.0529,414,3.3398529188129196
208,0.05341234567901234567901234567,416,-1.745416139016224
209,0.05392716049382716049382716048,418,-2.332511700077411
210,0.05444444444444444444444444443,420,-0.19287928530267096
211,0.05496419753086419753086419751,422,2.402252135009981
212,0.05548641975308641975308641977,424,-0.17148845385934658
213,0.05601111111111111111111111113,426,2.3988105889680345
214,0.05653827160493827160493827162,428,4.876902982166964
215,0.05706790123456790123456790124,430,0.7450042684417045
216,0.0576,432,-2.0452139442490673
217,0.05813456790123456790123456790,434,-0.5145786065772654
218,0.05867160493827160493827160493,436,-4.075225937400553
219,0.05921111111111111111111111109,438,-3.2552494225276916
220,0.05975308641975308641975308640,440,0.18943769193976517
221,0.06029753086419753086419753089,442,-5.602283479640105
222,0.06084444444444444444444444446,444,2.555572615855346
223,0.06139382716049382716049382717,446,-1.8201313464134607
224,0.06194567901234567901234567902,448,-0.2847736519903539
225,0.0625,450,-1.8062860470733946
226,0.06305679012345679012345679012,452,-2.257699147455224
227,0.06361604938271604938271604937,454,0.8888365355894222
228,0.06417777777777777777777777776,456,1.022235281967141
229,0.06474197530864197530864197529,458,-0.5709073708753012
230,0.06530864197530864197530864200,460,-1.0441514999656778
231,0.06587777777777777777777777779,462,-2.748615458279069
232,0.06644938271604938271604938273,464,1.1412019327923306
233,0.06702345679012345679012345680,466,-1.1237668174482482
234,0.0676,468,-2.816358943772445
235,0.06817901234567901234567901234,470,-0.18590772185811638
236,0.06876049382716049382716049382,472,-2.5108836408406883
237,0.06934444444444444444444444443,474,-0.40102808261777756
238,0.06993086419753086419753086417,476,2.423675714853245
239,0.07051975308641975308641975311,478,0.20675411079446937
240,0.07111111111111111111111111113,480,2.660976872136571
241,0.07170493827160493827160493828,482,-2.2093718887445215
242,0.07230123456790123456790123457,484,0.05182284636881613
243,0.0729,486,-0.6023969593577443
244,0.07350123456790123456790123456,488,-4.915449681858013
245,0.07410493827160493827160493826,490,0.2522546507396467
246,0.07471111111111111111111111109,492,1.3982907400156241
247,0.07531975308641975308641975306,494,-0.6008962265798594
248,0.07593086419753086419753086422,496,-1.4749071942868097
249,0.07654444444444444444444444446,498,0.06100857645045514
250,0.07716049382716049382716049384,500,-0.07885547156561465
251,0.07777901234567901234567901235,502,-0.5447554685627599
252,0.0784,504,0.7571863901522181
253,0.07902345679012345679012345678,506,1.539422708759763
254,0.07964938271604938271604938270,508,-0.08873088794230818
255,0.08027777777777777777777777776,510,3.8715107788091276
256,0.08090864197530864197530864195,512,-3.346716548691193
257,0.08154197530864197530864197533,514,0.5406753830899272
258,0.08217777777777777777777777780,516,0.054357028493796304
259,0.08281604938271604938271604940,518,-4.213933473504203
260,0.08345679012345679012345679013,520,-1.1523650908317344
261,0.0841,522,-1.6427638639904099
262,0.08474567901234567901234567901,524,-1.2633741524767366
263,0.08539382716049382716049382715,526,-2.292152376119467
264,0.08604444444444444444444444442,528,-0.9709298189793093
265,0.08669753086419753086419753084,530,4.877003480975405
266,0.08735308641975308641975308645,532,1.7410957768721589
267,0.08801111111111111111111111113,534,-4.229784288071025
268,0.08867160493827160493827160495,536,-1.0170595542020635
269,0.08933456790123456790123456791,538,4.574532525129889
270,0.09,540,3.4216276934981043
271,0.09066790123456790123456790123,542,0.5377300876592772
272,0.09133827160493827160493827159,544,3.8228352230880054
273,0.09201111111111111111111111109,546,0.046877337419732726
274,0.09268641975308641975308641973,548,-1.4774495083629804
275,0.09336419753086419753086419756,550,2.0198372389150574
276,0.09404444444444444444444444446,552,1.8391494712179504
277,0.09472716049382716049382716051,554,-2.0182435218007346
278,0.09541234567901234567901234569,556,0.6434236610828544
279,0.0961,558,-2.0272298895278853
280,0.09679012345679012345679012345,560,-1.0572240137651856
281,0.09748271604938271604938271604,562,1.1288507239177838
282,0.09817777777777777777777777776,564,-2.94547249488598
283,0.09887530864197530864197530861,566,0.5956866022972688
284,0.09957530864197530864197530867,568,-3.1544650905184284
285,0.1002777777777777777777777778,570,-2.2027834706363993
286,0.1009827160493827160493827161,572,2.7207512205345177
287,0.1016901234567901234567901235,574,-2.495230761029615
288,0.1024,576,4.181015665473784
289,0.1031123456790123456790123457,578,3.5213559116785818
290,0.1038271604938271604938271605,580,1.5019565212344517
291,0.1045444444444444444444444444,582,0.3689751873283463
292,0.1052641975308641975308641975,584,1.3442079282714667
293,0.1059864197530864197530864198,586,0.8682778348909914
294,0.1067111111111111111111111111,588,-1.2902727785698467
295,0.1074382716049382716049382716,590,0.7193603514342021
296,0.1081679012345679012345679012,592,-1.8850897466559535
297,0.1089,594,0.9045313762399269
298,0.1096345679012345679012345679,596,-0.23763059264580177
299,0.1103716049382716049382716049,598,1.1255508049230871
300,0.1111111111111111111111111111,600,3.7954914044211088
301,0.1118530864197530864197530864,602,1.2821856168856358
302,0.1125975308641975308641975309,604,-5.147407320140399
303,0.1133444444444444444444444445,606,2.925694929868124
304,0.1140938271604938271604938272,608,2.2306342952798213
305,0.1148456790123456790123456790,610,1.5905238305019076
306,0.1156,612,-2.257880018907696
307,0.1163567901234567901234567901,614,-3.220387339606784
308,0.1171160493827160493827160494,616,3.0186696634573824
309,0.1178777777777777777777777778,618,-2.3235172079590867
310,0.1186419753086419753086419753,620,0.19149387601729975
311,0.1194086419753086419753086420,622,-0.580728341242918
312,0.1201777777777777777777777778,624,-0.7960801726718331
313,0.1209493827160493827160493827,626,-0.2878794866297432
314,0.1217234567901234567901234568,628,0.6352487088366536
315,0.1225,630,-0.9483416948644255
316,0.1232790123456790123456790123,632,-0.16903464940039253
317,0.1240604938271604938271604938,634,0.516888365524656
318,0.1248444444444444444444444444,636,-0.7410163145004633
319,0.1256308641975308641975308642,638,-3.385209683142647
320,0.1264197530864197530864197531,640,2.4201338732782673
321,0.1272111111111111111111111111,642,2.7066125269321764
322,0.1280049382716049382716049383,644,-3.3373517829656594
323,0.1288012345679012345679012346,646,-2.87049034609861
324,0.1296,648,1.377315817634636
325,0.1304012345679012345679012346,650,0.7549710342309075
326,0.1312049382716049382716049383,652,-0.8660489603914736
327,0.1320111111111111111111111111,654,-1.2331214202239615
328,0.1328197530864197530864197531,656,-1.6445842424268444
329,0.1336308641975308641975308642,658,1.814499686241083
330,0.1344444444444444444444444445,660,-2.0214141534522043
331,0.1352604938271604938271604938,662,-3.1516573170715887
332,0.1360790123456790123456790124,664,-1.4652090656526737
333,0.1369,666,1.0467462233963936
334,0.1377234567901234567901234568,668,4.495766265888224
335,0.1385493827160493827160493827,670,3.1269762668201833
336,0.1393777777777777777777777778,672,-1.0308393285183355
337,0.1402086419753086419753086419,674,-5.963828789134636
338,0.1410419753086419753086419753,676,3.3965645287536153
339,0.1418777777777777777777777778,678,-2.0583117040854124
340,0.1427160493827160493827160494,680,0.3429256997838402
341,0.1435567901234567901234567901,682,-0.8914701949378583
342,0.1444,684,-3.18406929640402
343,0.1452456790123456790123456790,686,-1.9024319202204445
344,0.1460938271604938271604938271,688,1.482757570469573
345,0.1469444444444444444444444444,690,-0.9607691300270113
346,0.1477975308641975308641975308,692,0.5829619364821339
347,0.1486530864197530864197530865,694,-2.819072132460348
348,0.1495111111111111111111111111,696,1.423602566102029
349,0.1503716049382716049382716050,698,-2.5341349561656625
350,0.1512345679012345679012345679,700,-1.9437003791829846
351,0.1521,702,5.801601869379996
352,0.1529679012345679012345679012,704,-0.1880498459851448
353,0.1538382716049382716049382716,706,-0.03246624987924873
354,0.1547111111111111111111111111,708,-0.8681971144091217
