,Mass (amu),Time (microseconds),Amplitude
0,0,0,-2.5869538166618185
1,0.000001234567901234567901234567901,2,-4.222937149904435
2,0.000004938271604938271604938271604,4,3.9275914430750607
3,0.00001111111111111111111111111111,6,0.07224209725131778
4,0.00001975308641975308641975308642,8,-2.2038194064147736
5,0.00003086419753086419753086419754,10,0.3739293526636983
6,0.00004444444444444444444444444445,12,1.9091813101624417
7,0.00006049382716049382716049382716,14,-2.918867282297563
8,0.00007901234567901234567901234568,16,-1.5727389767063427
9,0.0001,18,-2.3186902862947143
10,0.0001234567901234567901234567901,20,0.47769249151043647
11,0.0001493827160493827160493827160,22,-2.6519791630566747
12,0.0001777777777777777777777777777,24,2.4936714006849345
13,0.0002086419753086419753086419752,26,-0.5834933246552733
14,0.0002419753086419753086419753088,28,-0.3968136265599829
15,0.0002777777777777777777777777779,30,1.5138997176841216
16,0.0003160493827160493827160493828,32,-0.9711736568258469
17,0.0003567901234567901234567901235,34,-0.7018939828520893
18,0.0004,36,1.0816914653601974
19,0.0004456790123456790123456790123,38,2.209630575814941
20,0.0004938271604938271604938271604,40,-0.7360866336061576
21,0.0005444444444444444444444444443,42,-3.6196794490360347
22,0.0005975308641975308641975308640,44,2.790309446573604
23,0.0006530864197530864197530864200,46,2.9041104169279706
24,0.0007111111111111111111111111113,48,-3.4472401967567365
25,0.0007716049382716049382716049384,50,-2.1238001830461015
26,0.0008345679012345679012345679013,52,-0.9709848647457121
27,0.0009,54,2.290171591400774
28,0.0009679012345679012345679012345,56,-3.5860685698183246
29,0.001038271604938271604938271605,58,1.1112109213455883
30,0.001111111111111111111111111111,60,3.1973502708482058
31,0.001186419753086419753086419753,62,2.755154921838342
32,0.001264197530864197530864197531,64,-1.6075259510545568
33,0.001344444444444444444444444445,66,-1.9870272550286963
34,0.001427160493827160493827160494,68,0.6249740899480942
35,0.001512345679012345679012345679,70,-0.7301140824467564
36,0.0016,72,1.547227819358643
37,0.001690123456790123456790123457,74,-3.371791122548065
38,0.001782716049382716049382716049,76,-0.9239496806709032
39,0.001877777777777777777777777777,78,-0.05628609570305057
40,0.001975308641975308641975308642,80,0.8148041031625228
41,0.002075308641975308641975308642,82,1.5270036348747025
42,0.002177777777777777777777777778,84,-1.5408835482439485
43,0.002282716049382716049382716050,86,1.1584984705460115
44,0.002390123456790123456790123457,88,-0.6018226699462137
45,0.0025,90,5.70952435870777
46,0.002612345679012345679012345679,92,-0.6438795996141893
47,0.002727160493827160493827160494,94,-0.9200009571566123
48,0.002844444444444444444444444444,96,1.7209737859918532
49,0.002964197530864197530864197530,98,-1.3229051063985569
50,0.003086419753086419753086419754,100,6.212727522729031
51,0.003211111111111111111111111111,102,0.8502442624042712
52,0.003338271604938271604938271605,104,-2.8672250676522593
53,0.003467901234567901234567901235,106,5.004010267064086
54,0.0036,108,0.19203104146702285
55,0.003734567901234567901234567901,110,-1.5425688937840456
56,0.003871604938271604938271604938,112,2.3754851620779447
57,0.004011111111111111111111111111,114,1.006899291718701
58,0.004153086419753086419753086419,116,0.87419070166318
59,0.004297530864197530864197530865,118,-1.7518511204954126
60,0.004444444444444444444444444445,120,1.9974738772105909
61,0.004593827160493827160493827161,122,-0.8953167880910061
62,0.004745679012345679012345679012,124,-3.3451126459630625
63,0.0049,126,-2.5348503643337033
64,0.005056790123456790123456790123,128,-1.923391779335256
65,0.005216049382716049382716049382,130,3.3247623852225345
66,0.005377777777777777777777777777,132,-0.3771363914572168
67,0.005541975308641975308641975308,134,2.949190937634472
68,0.005708641975308641975308641976,136,-0.5828561338635961
69,0.005877777777777777777777777778,138,2.826077389990609
70,0.006049382716049382716049382716,140,2.9938440738906427
71,0.006223456790123456790123456790,142,3.669868384121763
72,0.0064,144,1.1152776791261443
73,0.006579012345679012345679012345,146,-0.2393247722853458
74,0.006760493827160493827160493827,148,0.44715860208714525
75,0.006944444444444444444444444444,150,1.5632737055748203
76,0.007130864197530864197530864197,152,-0.32219031620141103
77,0.007319753086419753086419753087,154,-2.8045716939906367
78,0.007511111111111111111111111112,156,-0.9456222765489819
79,0.007704938271604938271604938272,158,-3.8723937120747904
80,0.007901234567901234567901234568,160,0.0413605410604019
81,0.0081,162,0.06226365397392965
82,0.008301234567901234567901234568,164,-0.32489479232709717
83,0.008504938271604938271604938271,166,-0.6410713658307896
84,0.008711111111111111111111111110,168,-1.1199662564406754
85,0.008919753086419753086419753086,170,0.4836334502720934
86,0.009130864197530864197530864198,172,1.05265858879781
87,0.009344444444444444444444444445,174,-3.3418603656645947
88,0.009560493827160493827160493828,176,-2.0817521301337836
89,0.009779012345679012345679012346,178,0.37998568733900984
90,0.01,180,-1.2719341371111739
91,0.01022345679012345679012345679,182,-1.2635809769086395
92,0.01044938271604938271604938271,184,-1.8901034216753485
93,0.01067777777777777777777777777,186,-0.5447783048594385
94,0.01090864197530864197530864197,188,-1.0574695875480957
95,0.01114197530864197530864197532,190,-0.6189543770725136
96,0.01137777777777777777777777778,192,-2.039652471338741
97,0.01161604938271604938271604939,194,1.0747916370466546
98,0.01185679012345679012345679013,196,1.4726324488222076
99,0.0121,198,-0.9474778230571476
100,0.01234567901234567901234567901,200,-3.15846242101076
101,0.01259382716049382716049382716,202,-0.48732167335544185
102,0.01284444444444444444444444444,204,-0.0517602538901258
103,0.01309753086419753086419753085,206,-1.798783054623938
104,0.01335308641975308641975308643,208,1.1818374032051087
105,0.01361111111111111111111111112,210,0.3357458315597403
106,0.01387160493827160493827160494,212,0.5389210225687265
107,0.01413456790123456790123456790,214,0.26530592079820225
108,0.0144,216,0.3680459957524546
109,0.01466790123456790123456790123,218,1.4928812975184527
110,0.01493827160493827160493827160,220,-0.8471703271067955
111,0.01521111111111111111111111110,222,-1.8684189084232083
112,0.01548641975308641975308641974,224,0.24173969386441443
113,0.01576419753086419753086419754,226,1.2465521370021944
114,0.01604444444444444444444444445,228,4.513767926970409
115,0.01632716049382716049382716050,230,-1.9907688689431178
116,0.01661234567901234567901234568,232,-0.27973538378083523
117,0.0169,234,-2.5455754161206516
118,0.01719012345679012345679012345,236,-2.5795012641572495
119,0.01748271604938271604938271604,238,-6.448115101002576
120,0.01777777777777777777777777777,240,0.09913826983794245
121,0.01807530864197530864197530863,242,1.2740055743335765
122,0.01837530864197530864197530865,244,1.2585247588321284
123,0.01867777777777777777777777779,246,2.259571064988575
124,0.01898271604938271604938271606,248,-2.6932661093689076
125,0.01929012345679012345679012346,250,2.2256493510547046
126,0.0196,252,1.36969085946901
127,0.01991234567901234567901234568,254,-0.4404325055783029
128,0.02022716049382716049382716049,256,-0.3418821526994256
129,0.02054444444444444444444444443,258,-2.16515571959
130,0.02086419753086419753086419752,260,1.7188876519828875
131,0.02118641975308641975308641977,262,3.128111520759148
132,0.02151111111111111111111111112,264,0.36994781413756284
133,0.02183827160493827160493827161,266,-0.31783644298139696
134,0.02216790123456790123456790124,268,-2.747928434695293
135,0.0225,270,0.08192249083361731
136,0.02283456790123456790123456790,272,-1.2866911232660632
137,0.02317160493827160493827160493,274,1.3985590076324412
138,0.02351111111111111111111111110,276,1.7391642847616697
139,0.02385308641975308641975308641,278,1.7555754111732833
140,0.02419753086419753086419753088,280,-3.844800029003928
141,0.02454444444444444444444444445,282,-0.32106391198532286
142,0.02489382716049382716049382717,284,-1.540971146700438
143,0.02524567901234567901234567902,286,-0.15807177644859202
144,0.0256,288,-1.3734262394052905
145,0.02595679012345679012345679012,290,-4.319156099481889
146,0.02631604938271604938271604938,292,-1.9303704792873324
147,0.02667777777777777777777777777,294,2.50223879473043
148,0.02704197530864197530864197529,296,3.97578895977544
149,0.02740864197530864197530864199,298,-0.30598643051931446
150,0.02777777777777777777777777779,300,0.5291179872431504
151,0.02814938271604938271604938272,302,2.208064217090357
152,0.02852345679012345679012345679,304,-4.715710113678224
153,0.0289,306,1.9354941690922682
154,0.02927901234567901234567901234,308,-1.7244952346455509
155,0.02966049382716049382716049382,310,-0.06317188158762674
156,0.03004444444444444444444444443,312,-3.757574718455405
157,0.03043086419753086419753086418,314,-1.6078270021968275
158,0.03081975308641975308641975310,316,-1.6074604080616668
159,0.03121111111111111111111111112,318,-1.2166443607362214
160,0.03160493827160493827160493828,320,4.125296939602795
161,0.03200123456790123456790123457,322,1.1210120342821666
162,0.0324,324,-0.8913999841592762
163,0.03280123456790123456790123456,326,3.6344197995938985
164,0.03320493827160493827160493826,328,1.0927694647703092
165,0.03361111111111111111111111110,330,4.567447635136695
166,0.03401975308641975308641975307,332,2.212293139239216
167,0.03443086419753086419753086421,334,-0.8679910474431864
168,0.03484444444444444444444444446,336,1.8691311064859188
169,0.03526049382716049382716049384,338,0.725721066586588
170,0.03567901234567901234567901235,340,-1.5467937221289427
171,0.0361,342,-0.7861161250436974
172,0.03652345679012345679012345679,344,-0.24629628866843792
173,0.03694938271604938271604938271,346,-0.20435285367400605
174,0.03737777777777777777777777776,348,-1.450094831143432
175,0.03780864197530864197530864196,350,0.1288933613023816
176,0.03824197530864197530864197533,352,0.041764239677538145
177,0.03867777777777777777777777779,354,-3.499441376368693
178,0.03911604938271604938271604939,356,-0.015680624698954673
179,0.03955679012345679012345679013,358,-2.374606173424884
180,0.04,360,-0.9170301619905062
181,0.04044567901234567901234567901,362,4.621446118510893
182,0.04089382716049382716049382715,364,0.4946917009595959
183,0.04134444444444444444444444443,366,1.1772409296728246
184,0.04179753086419753086419753085,368,-3.1693653208171857
185,0.04225308641975308641975308644,370,0.5860257625953538
186,0.04271111111111111111111111112,372,0.1961378581231413
187,0.04317160493827160493827160495,374,-6.963442525508098
188,0.04363456790123456790123456791,376,-1.3407363304845226
189,0.0441,378,2.979143529598416
190,0.04456790123456790123456790123,380,-3.4746343093619845
191,0.04503827160493827160493827160,382,-2.5974581504692806
192,0.04551111111111111111111111110,384,-0.38838028512736433
193,0.04598641975308641975308641973,386,0.4634273944063359
194,0.04646419753086419753086419755,388,0.7407027693646623
195,0.04694444444444444444444444446,390,-2.3585213421114894
196,0.04742716049382716049382716050,392,0.7643482960667425
197,0.04791234567901234567901234568,394,-3.0734867128571626
198,0.0484,396,1.0689439785324877
199,0.04889012345679012345679012345,398,-2.08828890522468
200,0.04938271604938271604938271604,400,2.260024083949665
201,0.04987777777777777777777777776,402,-0.9050327101714836
202,0.05037530864197530864197530862,404,0.03023741892783761
203,0.05087530864197530864197530866,406,-2.3966621351026043
204,0.05137777777777777777777777779,408,0.511399925046828
205,0.05188271604938271604938271606,410,-2.781729624454857
206,0.05239012345679012345679012346,412,-0.5723993054516804
207,0.0529,414,-0.5722647328389536
208,0.05341234567901234567901234567,416,-2.2762348344672527
209,0.05392716049382716049382716048,418,-3.9589845302140674
210,0.05444444444444444444444444443,420,5.340327866149466
211,0.05496419753086419753086419751,422,0.6410534033478485
212,0.05548641975308641975308641977,424,-0.25552822694324084
213,0.05601111111111111111111111113,426,1.8473094583410061
214,0.05653827160493827160493827162,428,-4.245775614601142
215,0.05706790123456790123456790124,430,1.3289519089182236
216,0.0576,432,-1.9399461083996226
217,0.05813456790123456790123456790,434,3.822911519391865
218,0.05867160493827160493827160493,436,0.5642924432443926
219,0.05921111111111111111111111109,438,0.8562557414153109
220,0.05975308641975308641975308640,440,3.6391273508353654
221,0.06029753086419753086419753089,442,-0.6329384532679511
222,0.06084444444444444444444444446,444,-0.21330209033794026
223,0.06139382716049382716049382717,446,-3.033115639625314
224,0.06194567901234567901234567902,448,-2.1555824341246654
225,0.0625,450,-0.21863235279507742
226,0.06305679012345679012345679012,452,-0.04261038136769255
227,0.06361604938271604938271604937,454,2.029675565746232
228,0.06417777777777777777777777776,456,-0.5345864614573509
229,0.06474197530864197530864197529,458,2.1050161510756444
230,0.06530864197530864197530864200,460,-3.942151847858515
231,0.06587777777777777777777777779,462,-0.19151611547160863
232,0.06644938271604938271604938273,464,-2.8629922021970615
233,0.06702345679012345679012345680,466,-0.659642987253823
234,0.0676,468,-0.8681946651891815
235,0.06817901234567901234567901234,470,-2.867044607813848
236,0.06876049382716049382716049382,472,-6.480479078872207
237,0.06934444444444444444444444443,474,1.7398631526502495
238,0.06993086419753086419753086417,476,5.353520597398776
239,0.07051975308641975308641975311,478,-3.6638344271188967
240,0.07111111111111111111111111113,480,1.430096499401145
241,0.07170493827160493827160493828,482,-0.4976042864862153
242,0.07230123456790123456790123457,484,-0.7545911364219613
243,0.0729,486,-1.1732853400234082
244,0.07350123456790123456790123456,488,0.9935650977530505
245,0.07410493827160493827160493826,490,-0.6392362695942909
246,0.07471111111111111111111111109,492,-4.344164738649144
247,0.07531975308641975308641975306,494,-0.842734552445475
248,0.07593086419753086419753086422,496,-0.012011400281029034
249,0.07654444444444444444444444446,498,1.4375686945874662
250,0.07716049382716049382716049384,500,-1.722685927124797
251,0.07777901234567901234567901235,502,5.4761273275657585
252,0.0784,504,-5.046874843864651
253,0.07902345679012345679012345678,506,2.8068023808713187
254,0.07964938271604938271604938270,508,-0.3496760114317831
255,0.08027777777777777777777777776,510,-0.6612053250641364
256,0.08090864197530864197530864195,512,-1.4872542256483763
257,0.08154197530864197530864197533,514,0.14291368136958357
258,0.08217777777777777777777777780,516,-2.7768614014450854
259,0.08281604938271604938271604940,518,2.0847293805891587
260,0.08345679012345679012345679013,520,0.723203823257756
261,0.0841,522,-2.0396193057522636
262,0.08474567901234567901234567901,524,1.196916384746766
263,0.08539382716049382716049382715,526,0.7015880448548184
264,0.08604444444444444444444444442,528,-3.106689351693268
265,0.08669753086419753086419753084,530,1.3871440921033877
266,0.08735308641975308641975308645,532,2.0261140241286113
267,0.08801111111111111111111111113,534,-4.537490549909733
268,0.08867160493827160493827160495,536,-1.8521371001105815
269,0.08933456790123456790123456791,538,1.2093406810545184
270,0.09,540,-3.811871253651131
271,0.09066790123456790123456790123,542,-6.658831460381756
272,0.09133827160493827160493827159,544,1.2939898978546591
273,0.09201111111111111111111111109,546,-2.7715080003332067
274,0.09268641975308641975308641973,548,-2.218832595652603
275,0.09336419753086419753086419756,550,0.33792505546481155
276,0.09404444444444444444444444446,552,-0.9158272279364832
277,0.09472716049382716049382716051,554,3.0458168278558615
278,0.09541234567901234567901234569,556,-0.27652656093450445
279,0.0961,558,-6.431142317231168
280,0.09679012345679012345679012345,560,-0.9604280274355992
281,0.09748271604938271604938271604,562,-1.777576792469439
282,0.09817777777777777777777777776,564,1.1603304066774458
283,0.09887530864197530864197530861,566,1.1314664194479624
284,0.09957530864197530864197530867,568,1.4172786007623857
285,0.1002777777777777777777777778,570,-0.2281354110601678
286,0.1009827160493827160493827161,572,2.972424356314665
287,0.1016901234567901234567901235,574,-1.7413504631564185
288,0.1024,576,-4.190524144728555
289,0.1031123456790123456790123457,578,1.6553803909624343
290,0.1038271604938271604938271605,580,6.022442897489512
291,0.1045444444444444444444444444,582,-1.9761029439168127
292,0.1052641975308641975308641975,584,-0.5108544756074797
293,0.1059864197530864197530864198,586,2.515609390945765
294,0.1067111111111111111111111111,588,-0.03549326409641798
295,0.1074382716049382716049382716,590,1.6810605605456543
296,0.1081679012345679012345679012,592,3.1481655483004514
297,0.1089,594,0.06644179083893965
298,0.1096345679012345679012345679,596,-0.958020933412008
299,0.1103716049382716049382716049,598,0.041111122394221725
300,0.1111111111111111111111111111,600,0.041407529022779284
301,0.1118530864197530864197530864,602,1.7486748141920012
302,0.1125975308641975308641975309,604,-1.1357717680075838
303,0.1133444444444444444444444445,606,-1.3978288474714455
304,0.1140938271604938271604938272,608,-0.40622324088007095
305,0.1148456790123456790123456790,610,1.6860249528391085
306,0.1156,612,-0.7152060381516482
307,0.1163567901234567901234567901,614,-1.3187567778879743
308,0.1171160493827160493827160494,616,-2.4142998892343597
309,0.1178777777777777777777777778,618,0.11634832523284774
310,0.1186419753086419753086419753,620,3.0013686214748163
311,0.1194086419753086419753086420,622,0.36016471144452084
312,0.1201777777777777777777777778,624,1.0236915360924723
313,0.1209493827160493827160493827,626,-4.451863789166905
314,0.1217234567901234567901234568,628,0.6248197606164871
315,0.1225,630,1.354720099190665
316,0.1232790123456790123456790123,632,-1.366646194357865
317,0.1240604938271604938271604938,634,-2.9658115430982526
318,0.1248444444444444444444444444,636,-6.494445210151445
319,0.1256308641975308641975308642,638,3.0064935401831683
320,0.1264197530864197530864197531,640,1.8576130594922724
321,0.1272111111111111111111111111,642,-2.8348177827313985
322,0.1280049382716049382716049383,644,-0.3470279937717063
323,0.1288012345679012345679012346,646,-3.888450352432046
324,0.1296,648,-2.0335270358244006
325,0.1304012345679012345679012346,650,1.2973818060947733
326,0.1312049382716049382716049383,652,0.05326841257086406
327,0.1320111111111111111111111111,654,1.082486004872217
328,0.1328197530864197530864197531,656,-4.245936043598036
329,0.1336308641975308641975308642,658,1.3365161188132457
330,0.1344444444444444444444444445,660,-2.4183277545000066
331,0.1352604938271604938271604938,662,-0.6014117110435927
332,0.1360790123456790123456790124,664,3.467841098516376
333,0.1369,666,3.0191163792325395
334,0.1377234567901234567901234568,668,3.1912897389231762
335,0.1385493827160493827160493827,670,-1.4031972912203383
336,0.1393777777777777777777777778,672,-2.3691745774592303
337,0.1402086419753086419753086419,674,0.49807987105149387
338,0.1410419753086419753086419753,676,3.521219515971077
339,0.1418777777777777777777777778,678,0.15184774278382893
340,0.1427160493827160493827160494,680,-2.336826670911587
341,0.1435567901234567901234567901,682,-1.8200621919120328
342,0.1444,684,3.4563093332192363
343,0.1452456790123456790123456790,686,-0.7780865045210571
344,0.1460938271604938271604938271,688,1.8076113692165194
345,0.1469444444444444444444444444,690,-0.6764493102060041
346,0.1477975308641975308641975308,692,0.4052110273368968
347,0.1486530864197530864197530865,694,-0.960667956341214
348,0.1495111111111111111111111111,696,0.8302531020676345
349,0.1503716049382716049382716050,698,0.48775903787766234
350,0.1512345679012345679012345679,700,1.0691390379242267
351,0.1521,702,-4.652846082372314
352,0.1529679012345679012345679012,704,1.041654374668645
353,0.1538382716049382716049382716,706,1.353483767636882
