,Mass (amu),Time (microseconds),Amplitude
0,0,0,-0.32227581882126355
1,0.000001234567901234567901234567901,2,-0.4080403117092707
2,0.000004938271604938271604938271604,4,0.6655754091595014
3,0.00001111111111111111111111111111,6,-6.517030632499167
4,0.00001975308641975308641975308642,8,0.21831843708317392
5,0.00003086419753086419753086419754,10,-2.486610536351271
6,0.00004444444444444444444444444445,12,6.15805312806246
7,0.00006049382716049382716049382716,14,0.3187189056793749
8,0.00007901234567901234567901234568,16,2.706382693662012
9,0.0001,18,-3.624463002504873
10,0.0001234567901234567901234567901,20,-3.2890447826563185
11,0.0001493827160493827160493827160,22,-6.1384358575355185
12,0.0001777777777777777777777777777,24,2.3877811580175643
13,0.0002086419753086419753086419752,26,0.16220304762556634
14,0.0002419753086419753086419753088,28,0.9509022877491606
15,0.0002777777777777777777777777779,30,1.8737637702355483
16,0.0003160493827160493827160493828,32,-0.05311830941296895
17,0.0003567901234567901234567901235,34,1.9715319952574162
18,0.0004,36,-0.5989394597185032
19,0.0004456790123456790123456790123,38,1.1176059339333004
20,0.0004938271604938271604938271604,40,-0.15495450606073569
21,0.0005444444444444444444444444443,42,0.2395233116254032
22,0.0005975308641975308641975308640,44,-1.0360697811481863
23,0.0006530864197530864197530864200,46,-3.8748651841818282
24,0.0007111111111111111111111111113,48,0.45272500867947424
25,0.0007716049382716049382716049384,50,2.4538611521271942
26,0.0008345679012345679012345679013,52,-2.721312053546307
27,0.0009,54,-2.697052239852762
28,0.0009679012345679012345679012345,56,-0.24739780751835178
29,0.001038271604938271604938271605,58,2.2438931906729076
30,0.001111111111111111111111111111,60,-0.2637370314069671
31,0.001186419753086419753086419753,62,-0.6196373233337213
32,0.001264197530864197530864197531,64,0.058231227688197856
33,0.001344444444444444444444444445,66,1.9910743723536637
34,0.001427160493827160493827160494,68,-0.4738251397763304
35,0.001512345679012345679012345679,70,4.043093110345852
36,0.0016,72,0.044835609664301286
37,0.001690123456790123456790123457,74,-0.9649628917572645
38,0.001782716049382716049382716049,76,0.29709838624279716
39,0.001877777777777777777777777777,78,2.0695008656601557
40,0.001975308641975308641975308642,80,-4.783390280921841
41,0.002075308641975308641975308642,82,-0.6268779274569725
42,0.002177777777777777777777777778,84,-1.7277333804655322
43,0.002282716049382716049382716050,86,-0.1365496299864542
44,0.002390123456790123456790123457,88,4.786373993322651
45,0.0025,90,1.9361329686036186
46,0.002612345679012345679012345679,92,0.03559970248377706
47,0.002727160493827160493827160494,94,1.926050178626603
48,0.002844444444444444444444444444,96,6.705808692815606
49,0.002964197530864197530864197530,98,-1.5093746877380594
50,0.003086419753086419753086419754,100,-1.7971746197081395
51,0.003211111111111111111111111111,102,-3.8955705944534134
52,0.003338271604938271604938271605,104,2.226335121501962
53,0.003467901234567901234567901235,106,-3.111075434605488
54,0.0036,108,3.3691932704616
55,0.003734567901234567901234567901,110,2.598274096624364
56,0.003871604938271604938271604938,112,-0.9646448822993334
57,0.004011111111111111111111111111,114,-2.7077344757537025
58,0.004153086419753086419753086419,116,-1.561628747173491
59,0.004297530864197530864197530865,118,-0.16207759468950658
60,0.004444444444444444444444444445,120,-0.7644890909151764
61,0.004593827160493827160493827161,122,-4.460679710490652
62,0.004745679012345679012345679012,124,-2.445282158795068
63,0.0049,126,-2.122054720763224
64,0.005056790123456790123456790123,128,3.1042667340917416
65,0.005216049382716049382716049382,130,-1.7423537292798197
66,0.005377777777777777777777777777,132,2.4215733950489615
67,0.005541975308641975308641975308,134,-2.3436214234640342
68,0.005708641975308641975308641976,136,0.16031788286222615
69,0.005877777777777777777777777778,138,-4.030520262507103
70,0.006049382716049382716049382716,140,-0.16805114104728505
71,0.006223456790123456790123456790,142,0.4035670101907049
72,0.0064,144,-2.107945931492351
73,0.006579012345679012345679012345,146,1.6676699945647375
74,0.006760493827160493827160493827,148,-2.2564222436690997
75,0.006944444444444444444444444444,150,-0.1575404905327678
76,0.007130864197530864197530864197,152,1.1252025872720786
77,0.007319753086419753086419753087,154,0.6338425061318637
78,0.007511111111111111111111111112,156,3.677807162217651
79,0.007704938271604938271604938272,158,-1.389922293372263
80,0.007901234567901234567901234568,160,0.2945803665713517
81,0.0081,162,-0.0756318453267714
82,0.008301234567901234567901234568,164,2.505824681405656
83,0.008504938271604938271604938271,166,-0.33386884577064135
84,0.008711111111111111111111111110,168,-1.4989070826904725
85,0.008919753086419753086419753086,170,3.5088305249169602
86,0.009130864197530864197530864198,172,2.8939532260960803
87,0.009344444444444444444444444445,174,-2.4041653234941496
88,0.009560493827160493827160493828,176,-0.5481544262509725
89,0.009779012345679012345679012346,178,-3.6714457414400576
90,0.01,180,2.1186592442496965
91,0.01022345679012345679012345679,182,-2.1413084633422694
92,0.01044938271604938271604938271,184,-0.5215680041660797
93,0.01067777777777777777777777777,186,-0.1401385398257006
94,0.01090864197530864197530864197,188,0.5551413037801232
95,0.01114197530864197530864197532,190,0.8466912284244071
96,0.01137777777777777777777777778,192,0.9816636956983751
97,0.01161604938271604938271604939,194,3.1377500958304503
98,0.01185679012345679012345679013,196,3.01460519808474
99,0.0121,198,-1.7271319339182505
100,0.01234567901234567901234567901,200,-2.324544292711743
101,0.01259382716049382716049382716,202,1.3120965788461092
102,0.01284444444444444444444444444,204,-0.5340699527604436
103,0.01309753086419753086419753085,206,2.7921826004985943
104,0.01335308641975308641975308643,208,-4.097761636568906
105,0.01361111111111111111111111112,210,-0.23261503659347255
106,0.01387160493827160493827160494,212,-2.7324115812965544
107,0.01413456790123456790123456790,214,-4.895030556402135
108,0.0144,216,-1.671097678243387
109,0.01466790123456790123456790123,218,-0.5592919504536056
110,0.01493827160493827160493827160,220,-2.706468376771903
111,0.01521111111111111111111111110,222,0.4194775070341687
112,0.01548641975308641975308641974,224,0.8350140744325345
113,0.01576419753086419753086419754,226,-1.2651167754742396
114,0.01604444444444444444444444445,228,0.7978986334024469
115,0.01632716049382716049382716050,230,1.3691765251387724
116,0.01661234567901234567901234568,232,2.346969215886863
117,0.0169,234,-3.686811377570167
118,0.01719012345679012345679012345,236,1.9560897782865845
119,0.01748271604938271604938271604,238,3.424994988431778
120,0.01777777777777777777777777777,240,-0.0945269847244032
121,0.01807530864197530864197530863,242,3.858612350296298
122,0.01837530864197530864197530865,244,2.067924458337705
123,0.01867777777777777777777777779,246,-7.8465516865808285
124,0.01898271604938271604938271606,248,1.4136691803160095
125,0.01929012345679012345679012346,250,0.5137642973861613
126,0.0196,252,1.4559992813489158
127,0.01991234567901234567901234568,254,2.7067764216456105
128,0.02022716049382716049382716049,256,-2.8595158534026033
129,0.02054444444444444444444444443,258,-1.191864744120741
130,0.02086419753086419753086419752,260,0.7344103664061474
131,0.02118641975308641975308641977,262,-3.291670943561378
132,0.02151111111111111111111111112,264,-1.376373427771793
133,0.02183827160493827160493827161,266,-0.9000048748620466
134,0.02216790123456790123456790124,268,-0.24616719806278828
135,0.0225,270,0.5981692648600477
136,0.02283456790123456790123456790,272,0.2187790746400254
137,0.02317160493827160493827160493,274,-2.275588899739432
138,0.02351111111111111111111111110,276,-5.391978006862171
139,0.02385308641975308641975308641,278,-7.041654147585264
140,0.02419753086419753086419753088,280,4.136586051687536
141,0.02454444444444444444444444445,282,-3.14729955672337
142,0.02489382716049382716049382717,284,3.6496554358501125
143,0.02524567901234567901234567902,286,-0.018186840579170454
144,0.0256,288,3.6162368585395477
145,0.02595679012345679012345679012,290,-1.2728710106351695
146,0.02631604938271604938271604938,292,2.994998316879176
147,0.02667777777777777777777777777,294,-0.3100367241263602
148,0.02704197530864197530864197529,296,-2.2841226552407012
149,0.02740864197530864197530864199,298,0.38910368347446456
150,0.02777777777777777777777777779,300,3.758651386086402
151,0.02814938271604938271604938272,302,0.702688704854548
152,0.02852345679012345679012345679,304,3.5240892404726663
153,0.0289,306,0.1707146724444912
154,0.02927901234567901234567901234,308,-3.420846140148498
155,0.02966049382716049382716049382,310,-2.4384059340291824
156,0.03004444444444444444444444443,312,-3.9896662961274862
157,0.03043086419753086419753086418,314,2.3277215091073953
158,0.03081975308641975308641975310,316,1.1798723610037443
159,0.03121111111111111111111111112,318,-0.18966539323513135
160,0.03160493827160493827160493828,320,-1.5146396140555127
161,0.03200123456790123456790123457,322,-3.005768291466123
162,0.0324,324,1.4138155437363085
163,0.03280123456790123456790123456,326,0.6634630920139561
164,0.03320493827160493827160493826,328,0.07987522802804803
165,0.03361111111111111111111111110,330,-3.244566365117859
166,0.03401975308641975308641975307,332,4.9882253936891345
167,0.03443086419753086419753086421,334,-2.652276725859831
168,0.03484444444444444444444444446,336,2.4123518589665087
169,0.03526049382716049382716049384,338,-0.8690521510260149
170,0.03567901234567901234567901235,340,-0.3230895938013746
171,0.0361,342,3.688594068374973
172,0.03652345679012345679012345679,344,-0.2004960772796043
173,0.03694938271604938271604938271,346,-1.6715512804970682
174,0.03737777777777777777777777776,348,-1.5226544093117065
175,0.03780864197530864197530864196,350,-1.650598828104303
176,0.03824197530864197530864197533,352,-2.644576137169141
177,0.03867777777777777777777777779,354,1.0971561498781188
178,0.03911604938271604938271604939,356,2.8955160581214137
179,0.03955679012345679012345679013,358,3.4177809820424625
180,0.04,360,1.0136620845250337
181,0.04044567901234567901234567901,362,3.9716162716105248
182,0.04089382716049382716049382715,364,-0.06448474388468065
183,0.04134444444444444444444444443,366,1.4075310914571157
184,0.04179753086419753086419753085,368,-0.7830317414031265
185,0.04225308641975308641975308644,370,0.3021285074458822
186,0.04271111111111111111111111112,372,6.116052558209121
187,0.04317160493827160493827160495,374,-4.12360183139382
188,0.04363456790123456790123456791,376,3.979474606577643
189,0.0441,378,2.4976088501082474
190,0.04456790123456790123456790123,380,2.532833807816887
191,0.04503827160493827160493827160,382,4.483890642207866
192,0.04551111111111111111111111110,384,0.7591636654847984
193,0.04598641975308641975308641973,386,-3.237454833107409
194,0.04646419753086419753086419755,388,1.142635408291873
195,0.04694444444444444444444444446,390,-4.959191984182754
196,0.04742716049382716049382716050,392,-3.8965495096362743
197,0.04791234567901234567901234568,394,-2.6501029141127748
198,0.0484,396,-1.0881950589606302
199,0.04889012345679012345679012345,398,2.9073054673138836
200,0.04938271604938271604938271604,400,-2.544857555488362
201,0.04987777777777777777777777776,402,2.042536114639205
202,0.05037530864197530864197530862,404,1.178579124528744
203,0.05087530864197530864197530866,406,-3.0541788720870633
204,0.05137777777777777777777777779,408,-2.4265476630798704
205,0.05188271604938271604938271606,410,-2.618192228489031
206,0.05239012345679012345679012346,412,-0.7531538968326017
207,0.0529,414,-1.908618765904964
208,0.05341234567901234567901234567,416,-4.5847389204081095
209,0.05392716049382716049382716048,418,3.403965714983313
210,0.05444444444444444444444444443,420,2.310166977632222
211,0.05496419753086419753086419751,422,0.6486468218129655
212,0.05548641975308641975308641977,424,-2.639416139372149
213,0.05601111111111111111111111113,426,5.082414374115982
214,0.05653827160493827160493827162,428,-0.03527377289404444
215,0.05706790123456790123456790124,430,-2.0446698798817495
216,0.0576,432,1.2297232158354092
217,0.05813456790123456790123456790,434,2.5201318429015154
218,0.05867160493827160493827160493,436,3.264959294511784
219,0.05921111111111111111111111109,438,1.3784250127404778
220,0.05975308641975308641975308640,440,2.9050842678378124
221,0.06029753086419753086419753089,442,3.6182819409556424
222,0.06084444444444444444444444446,444,-1.1777101932041294
223,0.06139382716049382716049382717,446,0.24684586438140918
224,0.06194567901234567901234567902,448,0.5597950592138258
225,0.0625,450,5.153258420140203
226,0.06305679012345679012345679012,452,-1.596493394758905
227,0.06361604938271604938271604937,454,-1.7281740061283537
228,0.06417777777777777777777777776,456,-1.678004289559303
229,0.06474197530864197530864197529,458,-2.7848683538934447
230,0.06530864197530864197530864200,460,-1.797607951687395
231,0.06587777777777777777777777779,462,-3.0704566309745442
232,0.06644938271604938271604938273,464,1.0933171900843761
233,0.06702345679012345679012345680,466,-2.488136078640944
234,0.0676,468,-2.1545533054939763
235,0.06817901234567901234567901234,470,-0.5354272169638236
236,0.06876049382716049382716049382,472,6.675356934161634
237,0.06934444444444444444444444443,474,2.0065884292486835
238,0.06993086419753086419753086417,476,0.78329170627795
239,0.07051975308641975308641975311,478,-1.8586270620961935
240,0.07111111111111111111111111113,480,0.7198509891449676
241,0.07170493827160493827160493828,482,-2.03179944848384
242,0.07230123456790123456790123457,484,2.452118602283832
243,0.0729,486,-1.7410150072942485
244,0.07350123456790123456790123456,488,-3.376727402990263
245,0.07410493827160493827160493826,490,2.910541572879622
246,0.07471111111111111111111111109,492,2.143070737642357
247,0.07531975308641975308641975306,494,-0.7230803323604004
248,0.07593086419753086419753086422,496,-0.12508724566892188
249,0.07654444444444444444444444446,498,0.2821544371841656
250,0.07716049382716049382716049384,500,-1.8857236185921478
251,0.07777901234567901234567901235,502,0.1117520870195806
252,0.0784,504,-2.7381345199833333
253,0.07902345679012345679012345678,506,0.5810878628471201
254,0.07964938271604938271604938270,508,0.42183419211966505
255,0.08027777777777777777777777776,510,-4.805251657655297
256,0.08090864197530864197530864195,512,0.6877983274894192
257,0.08154197530864197530864197533,514,-2.694969575481405
258,0.08217777777777777777777777780,516,0.6923541825607493
259,0.08281604938271604938271604940,518,-4.194072472498689
260,0.08345679012345679012345679013,520,-1.475554841408171
261,0.0841,522,-2.9072564504785663
262,0.08474567901234567901234567901,524,-3.2208228473779292
263,0.08539382716049382716049382715,526,3.5670269114600592
264,0.08604444444444444444444444442,528,3.4707179273076996
265,0.08669753086419753086419753084,530,-0.6113652184551107
266,0.08735308641975308641975308645,532,3.6737803469380017
267,0.08801111111111111111111111113,534,3.7095843647781175
268,0.08867160493827160493827160495,536,-0.9619380454811991
269,0.08933456790123456790123456791,538,2.2179185477439174
270,0.09,540,2.814883074370807
271,0.09066790123456790123456790123,542,-1.380850133288662
272,0.09133827160493827160493827159,544,-0.7426808283559904
273,0.09201111111111111111111111109,546,-1.3552679677053778
274,0.09268641975308641975308641973,548,-6.276799353543898
275,0.09336419753086419753086419756,550,4.061524008552422
276,0.09404444444444444444444444446,552,-4.421645331319573
277,0.09472716049382716049382716051,554,-0.8149135408786541
278,0.09541234567901234567901234569,556,-1.067640032178188
279,0.0961,558,2.5967287828418226
280,0.09679012345679012345679012345,560,-0.741042997193411
281,0.09748271604938271604938271604,562,-1.4366390716190152
282,0.09817777777777777777777777776,564,2.4771505329809234
283,0.09887530864197530864197530861,566,-4.297545505583083
284,0.09957530864197530864197530867,568,-0.09548233126479258
285,0.1002777777777777777777777778,570,-0.4181213699923269
286,0.1009827160493827160493827161,572,-2.8570950250537375
287,0.1016901234567901234567901235,574,-3.033817241009014
288,0.1024,576,0.2371270167034234
289,0.1031123456790123456790123457,578,-2.7837300852938394
290,0.1038271604938271604938271605,580,1.4272412053099897
291,0.1045444444444444444444444444,582,-2.2234794058189444
292,0.1052641975308641975308641975,584,-1.5790873088127022
293,0.1059864197530864197530864198,586,-3.9005553761853258
294,0.1067111111111111111111111111,588,2.4740531227276277
295,0.1074382716049382716049382716,590,4.340347246854634
296,0.1081679012345679012345679012,592,2.544822767189503
297,0.1089,594,1.9373044883311006
298,0.1096345679012345679012345679,596,1.7411135729383058
299,0.1103716049382716049382716049,598,0.7907696105235986
300,0.1111111111111111111111111111,600,1.6328226030978072
301,0.1118530864197530864197530864,602,-2.0367026843538527
302,0.1125975308641975308641975309,604,0.09731741397385622
303,0.1133444444444444444444444445,606,-6.19392564430731
304,0.1140938271604938271604938272,608,-0.7484719176766914
305,0.1148456790123456790123456790,610,-1.7751134506524846
306,0.1156,612,-2.4315759609729017
307,0.1163567901234567901234567901,614,1.28709129030407
308,0.1171160493827160493827160494,616,-1.2936176317036856
309,0.1178777777777777777777777778,618,0.12469357850548773
310,0.1186419753086419753086419753,620,-1.2942398946344467
311,0.1194086419753086419753086420,622,-4.810668253914261
312,0.1201777777777777777777777778,624,0.1342386689971009
313,0.1209493827160493827160493827,626,-2.001145499963603
314,0.1217234567901234567901234568,628,1.0585511931447904
315,0.1225,630,-1.337309502939436
316,0.1232790123456790123456790123,632,-0.7410065105040311
317,0.1240604938271604938271604938,634,2.652059494549713
318,0.1248444444444444444444444444,636,0.660140243819919
319,0.1256308641975308641975308642,638,-1.4987695691161536
320,0.1264197530864197530864197531,640,2.7062924247674838
321,0.1272111111111111111111111111,642,0.9717457975759873
322,0.1280049382716049382716049383,644,-1.658300112585472
323,0.1288012345679012345679012346,646,1.400647364375976
324,0.1296,648,-1.1519994898094283
325,0.1304012345679012345679012346,650,0.07841561527055492
326,0.1312049382716049382716049383,652,1.5752445464495783
327,0.1320111111111111111111111111,654,1.360245141100263
328,0.1328197530864197530864197531,656,-0.4744314482802886
329,0.1336308641975308641975308642,658,-0.3733737084925165
330,0.1344444444444444444444444445,660,-2.4103465006705114
331,0.1352604938271604938271604938,662,0.47627398712407115
332,0.1360790123456790123456790124,664,-0.26132276972597457
333,0.1369,666,1.9439315426885835
334,0.1377234567901234567901234568,668,1.5414390837279583
335,0.1385493827160493827160493827,670,1.74086716070398
336,0.1393777777777777777777777778,672,3.3716653283030853
337,0.1402086419753086419753086419,674,2.596474235194652
338,0.1410419753086419753086419753,676,-7.821038605687553
339,0.1418777777777777777777777778,678,-0.24462857900696566
340,0.1427160493827160493827160494,680,-1.541580816464871
341,0.1435567901234567901234567901,682,-0.04281341702058015
342,0.1444,684,0.2371270167034241
343,0.1452456790123456790123456790,686,1.4536463257165912
344,0.1460938271604938271604938271,688,1.4544411871547924
345,0.1469444444444444444444444444,690,0.9544859892867532
346,0.1477975308641975308641975308,692,1.6765737813237218
347,0.1486530864197530864197530865,694,0.7610990308314645
348,0.1495111111111111111111111111,696,-1.7935558906229372
349,0.1503716049382716049382716050,698,-3.116771631657399
350,0.1512345679012345679012345679,700,3.5097654831390384
351,0.1521,702,0.35353524915724255
352,0.1529679012345679012345679012,704,-1.6363380373274758
353,0.1538382716049382716049382716,706,-2.5181249160995316
354,0.1547111111111111111111111111,708,-1.0044188526486038
